id,lead,signal
1053922973,I,-0.17998980419385344 -0.3741894386529954 -0.5098780824771113 -0.5870557356662011 -0.6057223982202646 -0.5658780701393044 -0.22849933144873494 0.07981484094798866 0.12518569077122157 -0.03266604778441606 -0.27501452249579506 -0.5165286718121144 -0.5761910640564265 -0.24240323514222678 0.28391649981600137 0.7885126239408665 1.1144227958163564 1.1815705976793642 0.8567817410129644 0.3664985752009777 -0.12478129853582795 -0.50142644890007 -0.6841207896096333 -0.5466652339070878 -0.29077664372042933 -0.005710740239783318 0.23778847779666262 0.40161062301341266 0.40335060859107835 0.3248906583050062 0.24896865136397792 0.1784075494200059 0.08858800689567663 -0.037784175103492725 -0.205064383504226 -0.4645857542546786 -0.7436092519823595 -0.9693984900869115 -1.0938487186604806 -1.0612442195053646 -0.8307593893497484 -0.49916507600232096 -0.12217348642954505 0.21607626702359306 0.3727763786711575 0.0876871845908212 -0.3970776888509015 -0.8746763952159426 -1.2719584479033246 -1.5870606257677313 -1.8003612563883757 -1.8579238737870316 -1.690052229562696 -1.3747023824778875 -1.0832705521341703 -0.9521933356065484 -0.8000096968499709 -0.4981513192079622 -0.17825804368792725 -0.024064691792500988 -0.1344341583710098 -0.44147138425792526 -0.9746698858163224 -1.590706010869977 -2.1186265447381425 -2.4624475052358306 -2.589633545363804 -2.4923282067258197 -2.2575894913908487 -1.9302674463430363 -1.5967669417828172 -1.3490235989355293 -1.3173985202920186 -1.3232397554474662 -1.2727899193251624 -1.1844203080474034 -1.1051855568323765 -1.04464955625865 -0.9154977042007972 -0.6282274922408377 -0.3099381540856387 -0.1630582953774181 -0.2390932647062741 -0.36388175550651464 -0.38266055986354597 -0.31492122805139866 -0.19421155894655603 -0.01969636648133443 0.2672579096822063 0.7865626103014441 1.2591320740113876 1.2268271559937425 0.7946365686767612 0.31032145892562585 -0.0014368805203133432 -0.20724846421525503 -0.3511057519827226 -0.34167702758092117 -0.04407991926522756 0.5841598153366532 1.2534255204822031 1.876421267731714 2.433973030992036 2.8668230912461325 3.1009327025018947 3.081678967969019 2.846476153734248 2.4448746822170064 1.94288706690475 1.4322458665814934 1.0033826311749088 0.7510291721114365 0.517686828170276 0.39592864551910395 0.37535390947934744 0.4298570606331767 0.48235757353480896 0.4634950114163293 0.26117837095311014 -0.03760276809300656 -0.32280533079645973 -0.5193427109758069 -0.5414813275934635 -0.418200517457692 -0.22976779636285366 -0.02339278503676175 0.14306429921444735 0.24063591393834316 0.2009730039752155 0.15527810298905667 0.13933945853560428 0.15578247106187748 0.1426746340715658 0.07667801437568507 0.07192084009113976 0.16305139188357115 0.3415274756703187 0.5995739377543281 0.9335282010337745 1.21236363792565 1.2931355482223899 1.2164284829151568 1.023101599300602 0.7528188053040553 0.4806682148732051 0.4004975414629297 0.5071678211343833 0.8601006964959909 1.360265219012799 1.761444073754227 1.7856566538584735 1.5168495256562928 1.0080756612910085 0.36279240915396216 -0.2280251828314394 -0.5554290135017145 -0.6938877226555782 -0.5972024666730658 -0.42363842644689953 -0.4530826063816738 -0.9260980068674387 -1.5020621541644554 -1.9575547246056824 -2.2145390091650294 -2.197912084431146 -1.8832196080276091 -1.3829349971913667 -0.7865447450541764 -0.2742675810716182 -0.08585761724434506 -0.25654726361598473 -0.4933415149906566 -0.6168890451541176 -0.6840844946279877 -0.7711603639191358 -0.8574911308815357 -0.8884284507217013 -0.8046108623084888 -0.6713137184452972 -0.5530880546341522 -0.4515780190750823 -0.3643596140089883 -0.31022296225106344 -0.33325078958367627 -0.39555054467111683 -0.44319119963655534 -0.47318671767770193 -0.4832232995657329 -0.4549941232062909 -0.24961669771324158 0.006897080947048816 0.18160867393754895 0.23685713137004566 0.2644707811083045 0.3022723130452214 0.27251840487060236 0.13684492447671695 -0.047409011382325304 -0.1540378491679256 -0.09650684348924356 -0.009744125080424207 0.09511137449338 0.18351367857332404 0.20798822303534426 0.12140685712034703 -0.02026165414586798 -0.19408988087873477 -0.3594324073177236 -0.44714692204585377 -0.4244448652663688 -0.3396514649581552 -0.3448886282144449 -0.4043505493851817 -0.49073017984841516 -0.5819382530617677 -0.6333877919820337 -0.6314571167561072 -0.5236831334028892 -0.26574088249795474 0.08788287114622258 0.41067068604383933 0.5986935559366962 0.7277845423323195 0.7563227631627522 0.6651249111316586 0.3880525983774943 -0.06430163676491178 -0.5120804205102373 -0.6452216662106336 -0.5098198993526097 -0.16632389808727166 0.30701013801619687 0.7651110973728614 1.0626564036379054 1.148444291621007 0.9251793626086325 0.4856451137249898 0.11965650897482195 0.1252004611101199 0.2634070057044749 0.3636321074691602 0.401459046498202 0.42188910394697904 0.4588995368214398 0.4703345972550093 0.33654535426651405 0.12912870042871957 -0.01611071413465972 -0.015822893660766876 -0.046400078437824906 -0.29342157441330885 -0.5818059274793469 -0.7290175509649892 -0.676195638306754 -0.5337162014105946 -0.3135127995757407 -0.05781342348866039 0.06510901793057304 -0.0070691821948233365 -0.2412906823964241 -0.5544737484343297 -0.8680731316442537 -1.3497651401038855 -1.8621180740743988 -2.148772424645029 -2.006789898489415 -1.6938748195515179 -1.5367566049781116 -1.4832867293500223 -1.4030674135050003 -1.2627555233792682 -1.2276282604912372 -1.3434232362891447 -1.4375773293487641 -1.416842609883246 -1.3073528773889922 -1.2702388894661596 -1.4268859082483183 -1.633836254720853 -1.791052887117581 -1.8333502146713792 -1.6884521315014622 -1.2819596640082103 -0.8185025742637952 -0.45989440379178104 -0.266271786326417 -0.24626488164980456 -0.42855617376792887 -0.6937637913158162 -1.0055160977288702 -1.2634557154405481 -1.3334020744433934 -1.145690513340481 -0.8455832105134006 -0.6359784935399972 -0.5187952224817767 -0.47782195438025143 -0.5211119457022447 -0.6725381007982487 -1.0290852967090303 -1.3858930009014014 -1.5402216625549805 -1.4863730453361803 -1.3919537486437306 -1.4055307945287032 -1.4222872795316008 -1.414407757612128 -1.4036595265613399 -1.4757015146093517 -1.6766562874653603 -1.7663555815756344 -1.5368565732354906 -1.0954585491640798 -0.593238124950859 -0.13777711228165726 0.23106376486372468 0.4505090816567539 0.48195030488616064 0.2532478457013392 -0.17490717575235773 -0.5697038230740279 -0.7420826073471921 -0.7845341831973683 -0.6739336337562466 -0.46177664696596127 -0.2962022901234476 -0.37251407622964716 -0.698764789081667 -1.42406428695268 -2.309556903196467 -3.0338702298037594 -3.3847489256790073 -3.3213613957812917 -2.6625937492436837 -1.6383360086203134 -0.5898213657661591 0.2132022317233498 0.7326962990798247 0.865835150621253 0.7910995046430194 0.5984136256357828 0.36315791604938685 0.20976641441913357 0.3842717288300626 0.6654941276252917 0.9054676186675223 1.0693135502991435 1.1906360873012944 1.2728778735927406 1.2749675917558363 1.161105802471625 1.0014994118809981 0.9327554357847863 1.0575290587673314 1.2446313816141692 1.471017998739834 1.6867177449151787 1.830553908475609 1.8637103427929707 1.8023277979555536 1.6919170074721424 1.5350080240103623 1.355396655025863 1.1701756753311623 0.9575954502138341 0.6783940050656783 0.3598549996057852 0.04161020561478335 -0.22026307837301737 -0.34647590173330367 -0.27029108026682835 -0.09934733221251503 0.028370796327905942 0.10624943567454224 0.14754760746780465 0.15303888431774973 0.16854091369042362 0.1843969027961546 0.20535918323478283 0.24929459793062933 0.30785719847770404 0.2798088830962241 0.06918484141060313 -0.20835423432212746 -0.48913104867388973 -0.7220684041933428 -0.8843695486086575 -0.905169966164505 -0.8249662334791992 -0.7166386346635485 -0.6140075348390001 -0.5399086554928789 -0.5217801696572191 -0.5445300337812801 -0.597207450264662 -0.6485266505693439 -0.6527812348909795 -0.5956668390657607 -0.5803560218758913 -0.7227636681574066 -0.9466191976667649 -1.1798215296029788 -1.3632221784512624 -1.4354965392601875 -1.3114278296652633 -1.0594246767326898 -0.7528751833944207 -0.45288585059356684 -0.21337670093691755 -0.07233399559524019 -0.015842396802611684 -0.17811045602689207 -0.44833949011326 -0.6371459441417535 -0.5666422412322047 -0.3623238864508342 -0.10564322777174674 0.16856565685865446 0.4229991608658401 0.6121341085145913 0.6553839173462167 0.5212980359681231 0.3499542762264871 0.21568651379080833 0.1675104387700205 0.16596217101786112 0.3577821631812393 0.607018462398324 0.7786557675005463 0.8301556934948788 0.8053459476426714 0.7258452680187423 0.5447814481822176 0.2098162906054153 -0.17117508089407 -0.39607153984288396 -0.2894401927632032 -0.08381060091815548 0.08872939645756564 0.21258883464388031 0.3014154142048074 0.34448671743446935 0.3128511366422311 0.09192897806582331 -0.15671180131556778 -0.28945165107721443 -0.2371331782220768 -0.07014003455383941 0.23707799018168982 0.6134809477115081 0.9659211194913908 1.227280384686102 1.32707512741362 1.1938411794435118 0.9857347149427584 0.8217397898057696 0.7349820948046346 0.7233940218188911 0.8035382715692253 0.8581885671797769 0.8442165866256588 0.7668539055418939 0.6507347319251873 0.5100868330539396 0.35859658607696754 0.03786701475238013 -0.2959595929619503 -0.4897528985457479 -0.461683504599224 -0.2615533164368815 0.058455357471912474 0.43220765014147117 0.7849696153415902 1.041414732735132 1.1044648197839704 0.8864597982679878 0.6387934404352908 0.384094271882004 0.16672685108399277 -0.006043560525587209 -0.08487742161105091 -0.12192318012395914 -0.1769676533729706 -0.23982994515436148 -0.3279972011504987 -0.4381740150282143 -0.5478525105240031 -0.5821570286372655 -0.5130050910686937 -0.3274663163708268 -0.05378274066016024 0.22447647405208712 0.4658279027133273 0.6055411406179813 0.5505812805996331 0.33850061746340393 0.097163229760188 -0.09556079576035745 -0.2590403334322809 -0.34556516930110737 -0.33179699609891017 -0.19513075613567804 0.06884183539434169 0.3706914628870033 0.6363452034405357 0.8271924477793751 0.894992791692123 0.8244888674356619 0.7131916935018078 0.6715461772668155 0.6777938665940451 0.7299760461386102 0.8116573701293769 0.8733690944543373 0.8815988448912399 0.8146030632961899 0.611494281065108 0.33037568276854123 0.11220423611199444 0.10409149115628766 0.2038365963910298 0.31008404017871627 0.41553907527855993 0.586838940362333 0.8519675630649991 1.071119593943026 0.9859023385653606 0.7295666500613371 0.4832216076000327 0.3411294194124056 0.20045236723480905 0.03574721649169325 -0.08816734721101974 -0.16769797933830155 -0.2100310621066575 -0.2851085512091863 -0.4269714112216946 -0.47725860317469065 -0.32399882828785515 -0.018770452248373103 0.3008491285720593 0.5047520562584873 0.5537796187441469 0.4251066291422854 0.19573503965613906 -0.048898811459918326 -0.261197913780347 -0.38277224434130735 -0.2622528071289091 -0.007995141732979218 0.2619398102285721 0.4635823590159685 0.6300041390056643 0.6994888471319223 0.6713613511010424 0.535288119010268 0.3458903956162478 0.234617083811758 0.317157470737169 0.5408095280965852 0.9815703795256489 1.520428026464646 1.9398727040736243 2.047842512957472 1.9711589786602421 1.8072828690437523 1.636097330534608 1.558168670847129 1.6637736947019939 1.9607423938645911 2.4967446502366717 3.063016465229637 3.423501668982958 3.5007727893851217 3.4803213009402354 3.5478136699043774 3.6826431934851023 3.908782834894472 4.198388584411113 4.450905130487334 4.59047271633296 4.580585842700549 4.37171352699183 4.047482346193257 3.807090529341777 3.8246017795624776 3.9414853044192295 4.085361253359073 4.168576105628533 4.091026327735478 3.801610707136902 3.3820004313604968 2.8835494504433874 2.411011746217111 2.1225972619985645 2.0422751526043896 1.9800200104170569 1.7736573004999845 1.4698447137934283 1.1218754585436508 0.766123790061562 0.43604484435512103 0.1297026302015932 -0.09299659477172674 -0.16526998328098433 -0.14514839067370455 -0.11580673902862795 -0.10431526190986216 -0.09723054931168057 -0.3445440467541563 -0.7722521287026459 -1.2240224020950852 -1.5912570898421532 -1.883474147975023 -2.2756551975703307 -2.6153766358112094 -2.771843553513295 -2.688175093141257 -2.480375918521822 -2.230466111722151 -1.8354414867739965 -1.3186458558640464 -0.7898169359992272 -0.44740222550410674 -0.43999355334724366 -0.597367553456888 -0.8997659907268664 -1.24334042901072 -1.4872837286126568 -1.5222446672021932 -1.4861357838974125 -1.5113555458164036 -1.5180898076021003 -1.3826276593741165 -1.0739677660019018 -0.7142088636760647 -0.5085572004449395 -0.37909839470704504 -0.23728272540743073 -0.07460698539000185 0.03054536976629115 0.0036899697848072873 -0.03228127019919471 -0.0035320941782566576 0.07371928333998745 0.1104048716423808 0.0686161706397594 0.026643412906182162 -0.11505463543441403 -0.3280231422035795 -0.5492236491090187 -0.7195138743908738 -0.817699123246011 -0.8150029431914976 -0.7234234056121785 -0.57217335415493 -0.4019636310512174 -0.32013805195696216 -0.4392427440794953 -0.6154930248635799 -0.7014180673891333 -0.6612754697985418 -0.5720279618214175 -0.5007830028812087 -0.49490033972930475 -0.6061091833724092 -0.8241057144502408 -1.100741805468703 -1.4177630676206607 -1.6378747856691331 -1.551894364016368 -1.2462413887855939 -1.0160698496722598 -1.1079179376803387 -1.3172930307217334 -1.386839761014429 -1.3798140634440554 -1.4875342852729054 -1.774063442386741 -1.9796999482221862 -1.7361966493474337 -1.3687537590565948 -1.4169886882775626 -1.950972328424609 -2.4446723756176474 -2.6059805653883097 -2.564630075873973 -2.27834473532496 -1.782031762328917 -1.09534698395151 -0.4332993036584355 0.010529797773941875 0.17777540658497476 0.13298077534556083 -0.023571438303516684 -0.2984707822357467 -0.4841625143632249 -0.3400254020958546 -0.04664220300218627 0.22007493976759762 0.33524717139857224 0.5185699288501909 0.6759446278990738 0.7270974663900692 0.6630690118810884 0.4970342817590407 0.29532454173586137 -0.018114424236701943 -0.39526551186560466 -0.7997968400483461 -1.204379444233975 -1.6135570653047753 -2.033441530883118 -2.233628132868098 -2.1002418505599327 -1.6942483810514088 -1.1426709179145462 -0.5635824324630065 -0.052632259271403775 0.10444317376407573 -0.028045633397117044 -0.38923435180663535 -0.8948184271271703 -1.396239492883149 -1.6866262944738322 -1.77175524858575 -1.6628576427178925 -1.414246338574062 -1.204388827658203 -1.243465459117583 -1.3712369723588458 -1.4791992253531656 -1.5116071096970958 -1.4131579337335645 -1.1593129914945284 -0.9079554668251685 -0.7585219564910651 -0.7427817897319856 -0.8995259596420053 -1.2319141519012133 -1.5192376030636907 -1.5295626605795032 -1.3728777255502382 -1.2496562256706423 -1.2289773871323013 -1.2084633362893815 -1.086965042990188 -0.9160786749208139 -0.7538793726152443 -0.6002808064494549 -0.3921301979380988 -0.1197644999072849 0.08505636817726994 0.1776693874852633 0.21058491316152955 0.3067776287915443 0.5009911630445879 0.6802136212379295 0.8281909878180106 0.8923544109238557 0.7541930992623872 0.37704510883139525 -0.019832504783650836 -0.13509797490199377 -0.05961044680423453 0.11107738767341323 0.3204791489331593 0.5220526671688629 0.6412989950086105 0.6369362283505039 0.46551173399415996 0.1862884789219359 -0.028656053718999847 -0.054268483590675494 -0.030530864305405785 -0.008831689083975568 0.011861316517660965 0.053887904516593164 0.12745180901678635 0.23261862685547738 0.28547202211832756 0.2936509212107503 0.29053605779965885 0.2958072758443262 0.285140216032557 0.20983654541662186 0.1143822662587435 0.03709712940874535 -0.01007163812170889 -0.08075676652751605 -0.17758178149130444 -0.25069623916439326 -0.26657539431413046 -0.2536725138930563 -0.3163060245576219 -0.5702391841207683 -0.898687998452344 -1.2269288981671773 -1.465743093934948 -1.5136967100383243 -1.3055291350412552 -0.9408907555610501 -0.47198340620148704 -0.023177265014310063 0.2316359604409031 0.18549836203399134 -0.010408586274340935 -0.22868336197159878 -0.45349726783254657 -0.722309988771619 -1.010156633680597 -1.2327849523531793 -1.2062593537510287 -1.0856108128106732 -1.2284950648498651 -1.557450179682211 -1.7622122671785592 -1.6328452874062716 -1.3193309405535714 -0.8815778047011715 -0.36925375216049316 0.20113376461047955 0.7466465890555437 1.021884308370455 0.8307932365672324 0.4455574131405276 0.13511672095979613 0.011536765230998367 0.04340727970466991 0.3399342078320778 0.7303638188411287 1.0543818931265256 1.2369715605653802 1.340878859823604 1.3721756860184617 1.366051402218387 1.343412217944646 1.351652465508005 1.4893401965936068 1.8893078023932912 2.3024666880859495 2.5122797099013674 2.5125543064466895 2.3557653995341776 2.0825921067053423 1.7573683837731588 1.4746811000834665 1.2969675841627273 1.2867250069617766 1.4512585116778096 1.6071308470049808 1.724305796307004 1.8054617771856036 1.7865836175119942 1.6743259367067378 1.5981762680477545 1.7887872305851467 2.01693155572735 2.0836538608265953 1.9750142851213162 1.77017163032203 1.5382897638307413 1.215190449658577 0.7311881063171527 0.2340483526348226 -0.007648323327977892 0.18896286585422142 0.4896889178084434 0.7171934125953479 0.8978205548103534 1.069127753925475 1.2156325870958289 1.264054274207082 1.148589375684489 0.9571164016605905 0.8095139786876627 0.7282788986957646 0.5624303011354105 0.15144028213239 -0.3145431475628069 -0.6707573511414252 -0.8717618395089162 -0.9213895694835726 -0.799201819898936 -0.5638309392585681 -0.3821708772969693 -0.27427575510868785 -0.24769921602987013 -0.317624578647128 -0.35480118131950417 -0.3676081950008325 -0.3570373005314576 -0.338522909767622 -0.3075903278556845 -0.3045643846528562 -0.2979508142851975 -0.22648675988152644 -0.09365276794642892 0.07110714310031943 0.2090421722376311 0.29648730033163706 0.33335348041201324 0.27816565057380166 0.19026600183720516 0.20349606543370286 0.43008276072831103 0.6694874212438076 0.7792405091390407 0.775945680152565 0.7254438721122388 0.6592988081544864 0.5512972024953987 0.34130616104577677 0.13199839893517917 0.015480188257654067 0.04256820266893366 0.1957155699998457 0.7059582483653232 1.3160918721588608 1.7873306827306699 2.022554719233536 1.9956494925343597 1.6779618216557286 1.2031041465915508 0.7224424606708928 0.332480531879417 0.14370146575038373 0.2547643218519031 0.31685348602906765 0.2454830554307009 0.09483287459340779 -0.027142111503811985 -0.06026446014587768 -0.05145877364649937 -0.3067644130510097 -0.7134075186917627 -1.1707519887971338 -1.586708915448257 -1.8213229565370745 -1.6997090841557696 -1.3051317373024596 -0.7824848406388638 -0.27670025613630833 -0.0061507792723621505 -0.19835802601687796 -0.5540842437007604 -1.0110879993338149 -1.4470807906116547 -1.7079625121241173 -1.654575161530441 -1.4892095293031298 -1.3817812060228203 -1.2998742823343488 -1.1579841450319999 -0.9431842599180639 -0.7316701959814279 -0.6220781765136059 -0.5465239438109804 -0.41630175320790014 -0.22449399577553794 -0.0809870016532064 -0.12758696454680257 -0.23681077110544227 -0.2883891206735599 -0.26767951805114254 -0.2533846263731079 -0.33295468590668764 -0.36511212229125595 -0.11379318486662525 0.3575089115299794 0.8552774087900997 1.2293579028915858 1.5354669649071613 1.7182989911299618 1.7586382222039014 1.6698023011072578 1.4916383033992464 1.3455375542798407 1.3900524770814138 1.4735728379691317 1.4676842759595172 1.3137733030798915 1.0018080900269117 0.465152690198812 -0.09800679617360178 -0.49655360479795524 -0.6773627047871801 -0.6898908231244412 -0.5495168084958081 -0.3436123502979048 -0.14480049368903303 0.0009594614634249231 0.07487072121468949 0.051082612289065805 0.00909463575539286 -0.05506343614293438 -0.15385453730954432 -0.3182902212829936 -0.5344579187642623 -0.7244333865891626 -0.8096169915390377 -0.7741670181368367 -0.5691732578990881 -0.22542969423344364 0.11506899691389791 0.2976669296538498 0.29522876904003914 -0.01945112313893697 -0.5418122812480085 -1.0270461769271984 -1.2810669412607418 -1.3343561429537965 -1.2454381467102107 -1.0235490111783585 -0.6925868728069347 -0.293761257237643 0.06072098076025079 0.2192155027036825 0.2666263635872872 0.30857402516152554 0.3575181582753361 0.2766563780115426 -0.1654038802211184 -0.6435812678354441 -0.8230726669639584 -0.6293098721211086 -0.29324271089090714 -0.044650254402066665 0.1675496529865099 0.4051401404487655 0.6115051414217102 0.6641231826762292 0.451074478319319 0.25919826688284164 0.13065970137475974 0.03437320277440076 -0.12974205921734633 -0.37669473308780566 -0.5172946684053095 -0.40773734253285515 -0.14967085834109178 0.11948831519269583 0.3029181957750438 0.3547865852719803 0.19937438409700978 -0.024692192519142064 -0.16369041775959398 -0.17454469237349113 -0.1485574009701947 -0.2704671728282921 -0.43762119990500675 -0.4947407499669351 -0.44729029107686774 -0.3412672546418555 -0.25262247733367 -0.1480213085542426 -0.031428132230537566 0.01841992493076163 -0.1582537469550924 -0.6350551217975924 -1.0189952173027035 -1.0945209698749836 -0.9705708244055382 -0.7515378381889959 -0.5165307442490386 -0.33955358065971036 -0.42365899155763653 -0.6382317522528799 -0.8226655886401465 -0.9210673487496509 -0.9506513443686453 -0.9666949583997829 -1.0395429724718912 -1.3546181083790116 -1.8004423649869077 -2.184382045326519 -2.3870394461957454 -2.296437454398791 -1.995256759075548 -1.5634728557189257 -1.105346839735147 -0.7215420951003739 -0.5108725056001651 -0.6564354901772315 -0.8761978076346311 -0.9464190717025618 -0.8131687348460257 -0.6230505355550845 -0.35041486868827265 -0.032183804465797584 0.22489303573009334 0.37634370679563117 0.4303101456905047 0.4181265534482891 0.36803097117252387 0.2852832364700979 0.20831725703714873 0.19853883833569994 0.3186264027070123 0.38727630310791533 0.27517009747985915 0.08067858368737028 -0.04873525169222941 -0.03345313561506555 0.07320548280490548 0.30444032100967705 0.5670094535065188 0.7687947793038763 0.8371770279774416 0.7334896244853286 0.3755140324759088 -0.07819760357428913 -0.5087377021035083 -0.8201261472464915 -0.9454163223529659 -0.777949484210664 -0.4819827038104935 -0.24985285183171085 -0.12350727106568384 -0.06443250624627873 -0.05730433854655352 -0.08652700511256717 -0.2631339385546597 -0.4999829373358602 -0.6768856656357717 -0.7248317557114453 -0.7380213227214247 -0.7402404169153197 -0.6929855158091622 -0.6102784831097309 -0.5111234980021497 -0.442840797204787 -0.39400796375321806 -0.33494231832175697 -0.3219038103495103 -0.3483446096150151 -0.3513391366293319 -0.24604907850361016 -0.15961671115589882 -0.26406964759360146 -0.46757197060455086 -0.5813498864996721 -0.4988743028363781 -0.34783211435982436 -0.22214990233939874 -0.07953216669637732 0.16830274900004394 0.5269342763767425 0.8216588228895284 0.8694709409395482 0.7988319817146926 0.7530831166394695 0.7602784870344389 0.7381365326788095 0.6095410778072742 0.4435220817377794 0.2865601837736145 0.15823986468811396 0.05954843333947028 0.06062759686922417 0.146224314519001 0.04378673120212894 -0.23242005190312837 -0.581907370107046 -0.9268459382343123 -1.2062398699893386 -1.469331966393003 -1.5717120364053774 -1.2950991291130434 -0.5782617221478957 0.17506093309773318 0.47911321688132547 0.5625364603543018 0.6322547703456525 0.7214535050854693 0.720723874267122 0.5806097539005212 0.4244956323028531 0.3139612429813901 0.22781000474020782 0.034227899124908055 -0.3125805264619825 -0.6157098778558141 -0.8055469093537169 -0.8739951693402014 -0.8673120788531037 -0.8014424954468505 -0.6769130745529552 -0.39282830804980745 -0.02441300084721761 0.3236079541124832 0.5805134721786708 0.7425211173643069 0.8635075344331337 0.9141404392410393 0.8625994769649894 0.7337960592026351 0.6257906498396744 0.6523243149011593 0.6579128079349525 0.5331204857593683 0.3252589504302694 0.21247129297115325 0.3677107451399024 0.6065429442141137 0.7671369880103663 0.8432975874394906 0.8720803639752178 0.8753451294428813 0.8253730304405902 0.7199650862824197 0.6053800932475503 0.5337047849318678 0.5191320692930292 0.43547038369708885 0.2537862671007194 0.07325900778555854 0.013915107785322206 0.09177015291806402 0.18392925203070123 0.08853618274397446 -0.09463538125490681 -0.26606784252688825 -0.3845492246960253 -0.39366336747396097 -0.25446157067407116 -0.01773688196332727 0.21856224313646336 0.34519667521499875 0.1879527967475363 -0.3465794318520191 -0.9082685061003131 -1.254285689224965 -1.4142113346605285 -1.4517432353820223 -1.4030510883056284 -1.3310471209609853 -1.3504465137673292 -1.360915366107959 -1.2671508882496862 -1.0519305176874547 -0.7146197540212031 -0.3100581983662156 0.008680162673324039 0.12705298900630163 0.03693264124347642 -0.21736892781203465 -0.6169232787198714 -0.93643534955403 -1.0044726053095754 -0.864751753706204 -0.6031446349875345 -0.28650541128453066 0.03367033923560184 0.20841718174014873 0.2622127377715935 0.22391460239692837 0.12935086107676752 0.06457532466114685 0.10499770492866274 0.2032309757804777 0.3145728023447834 0.4081100881089504 0.43757619841635864 0.35620453289610676 0.27137282887561004 0.24463545413221738 0.2934423170036566 0.4131851969646284 0.6027039265966618 0.807961369212091 1.0699276071947512 1.3101686763370033 1.432649679975281 1.3837559784446838 1.2264425389573352 1.0146576169172585 0.7972597820419307 0.6502191074642364 0.6230194268039594 0.7319678899703452 1.0078592241874589 1.2689475556918848 1.3543186702664192 1.255491524443475 1.0971895840024344 0.9933139914927128 0.9460919742877446 0.928634140399961 0.9493950913066664 1.0211864203144438 1.1704150632186194 1.3426458918998387 1.5443520236586457 1.7544242283620577 1.9445590803328023 2.0884332861723522 2.132202107710413 2.1829468378452863 2.189571416510765 2.087220635756562 1.8872138341652624 1.6805252916053843 1.6488015788029506 1.6103383518379584 1.3744218382607376 0.9849001530115163 0.6644405547626809 0.6419963427963181 0.6930608717234813 0.7055757755720624 0.6959764606634836 0.7306242350021827 0.8291209006735851 0.8372989660669806 0.7335063339065092 0.5845678728679167 0.4730944222327447 0.44476579585393694 0.4199358399229888 0.35472120916406225 0.28359169813074037 0.2917694185676309 0.38951412815166647 0.5332016352319521 0.6496775309270516 0.6952502689600095 0.6717243859583324 0.5686663736198587 0.36052676089870167 -0.008489390560839749 -0.3673754435791519 -0.5283040002087975 -0.533612445566189 -0.5356998197645149 -0.6194512199541474 -0.6460517964825556 -0.47565978061032094 -0.20072756928110685 0.05837472159442988 0.22982152781796017 0.3634257619612133 0.4300206092653074 0.37092382931653484 0.1361122123405343 -0.23720094463627972 -0.6011746185685721 -0.8687750472157393 -1.0652534090747627 -1.1236124490949801 -1.070558428032366 -1.0396604917031451 -1.1980958286558294 -1.386687597445406 -1.4635043890245252 -1.4276294797593798 -1.307553187406883 -1.1279548318324693 -0.8818159500804684 -0.5587095295837148 -0.29948878842682536 -0.32187362076491755 -0.6880302244867749 -1.0972177666968985 -1.4041781764385315 -1.5570212187786276 -1.4419485732440827 -1.066173408380823 -0.5667813311519978 -0.10371126908638553 0.2202390505597007 0.26150432974948323 0.06307676666966369 -0.20405072178663453 -0.4260987549817463 -0.5314829995874139 -0.4608897047523901 -0.292824090475804 -0.18770370341367176 -0.24506467386656572 -0.3542256164352686 -0.39194494160922794 -0.35187885626291016 -0.2783041982944261 -0.20930764796646187 -0.1588853285469305 -0.09069593136830839 -0.052789344208762246 -0.12001609758195564 -0.25681450641985315 -0.3001542239413434 -0.12604097523301436 0.09445638666920116 0.20584537770589292 0.21748789411677016 0.2522004188635276 0.38976803115394754 0.5810827281139676 0.869718191368575 1.2016340236775744 1.494294908033912 1.6836428152062095 1.738208135169328 1.7426800681494043 1.6689269595358587 1.4904124354094896 1.2357298386185847 0.9857776937730534 0.8870748693417024 0.8160045375906804 0.6557890683660151 0.42702143073406373 0.2899379398865566 0.40652915236555165 0.5583476200814378 0.5204404103818663 0.3475233681890939 0.23005322720867213 0.34577014482546964 0.5335053424024928 0.6756392059474142 0.7787601773752826 0.879474933359493 0.9809912386801847 0.9557312322370157 0.739799431303457 0.4692625478800078 0.2802828167840881 0.2412821810092113 0.2245829388902409 0.19185461636674883 0.14969633545532748 0.07917448505915961 -0.005839047085628812 -0.05070371284536514 -0.0021857549368254304 0.08556843957063746 0.14479861388465656 0.16360206397267027 0.16041907313395892 0.15089500730506045 0.1125293676514779 -0.04002326602141598 -0.22544535972268417 -0.32662901886184725 -0.2836569145692828 -0.18321773220822588 -0.04935454897871884 0.07996695892959954 0.07765741244154908 -0.07918724898408544 -0.2973303382214037 -0.4356281198575994 -0.467980571550072 -0.4372503174567142 -0.37272362415267274 -0.29950691412315145 -0.22498316370165233 -0.2238650266670929 -0.3619775112971473 -0.5455121330555625 -0.6141605619848575 -0.5050823118343497 -0.3477179154959441 -0.148908003718188 0.05394622632171943 0.2420289188410386 0.38436886478438687 0.4579587912201586 0.3565165476979556 0.1143032589280538 -0.2354674486124387 -0.6256829867300212 -0.935786238060642 -1.039569018391721 -1.006310955016879 -0.8699554242750642 -0.6925520449297247 -0.5802452908173633 -0.645491783133671 -0.8203582486260578 -1.1095509659796525 -1.4729198442735099 -1.8986138159016128 -2.35502732726494 -2.6799439159169074 -2.6386566607036923 -2.313899824884922 -1.8734659140521646 -1.4504915871706945 -1.070054329254609 -0.7648459298394741 -0.5834958952784296 -0.5918124380345684 -0.7327427801536806 -0.7556910143131924 -0.4886130702927234 -0.169591927828777 -0.03630158159995132 -0.1052182513352282 -0.23153013675532386 -0.32494095403789963 -0.3933515643056725 -0.4049373270812635 -0.3568460960910288 -0.2549163424950543 -0.11695302613575503 -0.0687281537384359 -0.2758348110763966 -0.5834203971084708 -0.8193667390997547 -0.9002308685704362 -0.823301637220058 -0.5267131981011831 -0.0935496313545956 0.4312311229183846 0.9376081860481125 1.2819641230837768 1.258265332502856 1.0325243895479062 0.7326088582254876 0.41342038575416823 0.09944980607205552 -0.166933566460734 -0.3370093878912319 -0.296591585759039 -0.13338920571789517 -0.010218697451225195 -0.05151139876794223 -0.10205277694261602 -0.04608956074880253 0.0523129856526633 0.11348720465058759 0.09955475394751595 0.05933342544209826 -0.01262074542901626 -0.15779878627971916 -0.4046019195599017 -0.7265797615856041 -1.0239502739798323 -1.249903039301074 -1.4237087162048059 -1.5488227602997713 -1.6154450685459698 -1.6205563369537948 -1.5813376932504355 -1.454015028756857 -1.2293289062872044 -0.9332448526174201 -0.5971454752525216 -0.2539859305455479 0.06343156648823216 0.31033215438019957 0.46795913109428 0.5136854607931702 0.44642162410992037 0.3075902543986413 0.10407718102244311 -0.08169136028622725 -0.13868457794065855 -0.03665116266536305 0.16558536293973805 0.45211765854360997 0.7224425155340742 0.7947193458645088 0.6719917204134248 0.45037502813986674 0.20175145286644522 0.01063940458467082 -0.06977230944389286 -0.03266508748254625 0.10815710826878143 0.33803510250511715 0.548170385599434 0.6373054360252367 0.6791296350650998 0.7695247354834889 0.9121764771548472 1.0116052273571385 0.9887183648066186 0.8683552337127077 0.6642395897843474 0.4098073908743205 0.1632922719769973 0.010815165887960457 -0.07466130336308816 -0.07317743149940216 -0.07435609653651228 -0.33801578367003 -1.1041639393019727 -1.935325272210966 -2.4641055018763827 -2.6419623938691843 -2.446821953604252 -1.8905496018976662 -1.1579153913812437 -0.4933711931381753 -0.06615293100329091 -0.09860770047702572 -0.5891627893784984 -1.0353535775662575 -1.2496056239145092 -1.3334514688391634 -1.273869619643229 -1.114237789177092 -1.009033277470851 -1.1462030334539595 -1.3505100009475253 -1.4923785057183412 -1.5493021437146688 -1.5443636129064344 -1.4945171544693239 -1.3886080525216835 -1.2284554539634651 -1.0394496557928716 -0.858513108791453 -0.7106313348918347 -0.5173282924168232 -0.3117635674407128 -0.1180111705829081 0.08730637141974756 0.2908097479886299 0.44318370906907945 0.44436239372784914 0.33877397801298526 0.13140367563176292 -0.14512707362233265 -0.4583861693428824 -0.7669943901087699 -0.9420595889213267 -0.8704299420358783 -0.6059362908826126 -0.28491408308957883 -0.026018059956857385 0.1650206172642899 0.21699039510665344 0.18641941581805102 0.14400657811232728 0.1375443904773516 0.2046227531412247 0.45319082940364086 0.7731994088115164 1.0756107749535315 1.2902310314068104 1.3666612319025457 1.185700867745973 0.8702245407441623 0.5411110454752881 0.27736185216425246 0.1284702886828033 0.146411628567273 0.26886206527590795 0.4822992573491929 0.7537093208624824 1.073968076656289 1.4162105709690969 1.7514234131172703 1.9496638444294527 1.9994544178746394 1.913572809314868 1.7168470662076267 1.4489599687299093 1.0871681045473702 0.7683917025294579 0.719281984698867 0.9420372357605225 1.1586441162112742 1.1743469286422834 1.0726923080060995 0.8956812552968347 0.6480165223524947 0.2847954230487606 -0.23973324573782892 -0.6635758869623468 -0.6338675594568998 -0.28945118988594953 -0.036614477813205606 -0.18942982773316716 -0.4339507737328225 -0.4910874088124845 -0.42157481360653726 -0.30976003292441817 -0.1831174730591922 0.05850043710325657 0.36903175745753425 0.5388553248035592 0.3163533308469589 -0.28051731523281015 -0.772974770267863 -0.9008226966368957 -0.8453074322282152 -0.7712581358321953 -0.7065226009810335 -0.6322375167585862 -0.5463353196928874 -0.4575255781866508 -0.5665146144827033 -0.8030436380338281 -1.0089322333262365 -1.0813947935109163 -1.1575063310375036 -1.3413461055745273 -1.5163147143913558 -1.5402520449284802 -1.3894013881033465 -1.275279634769196 -1.3707469502112941 -1.5700998273677733 -1.842341263593031 -2.1438003720367655 -2.4199614304180286 -2.591026515980863 -2.6260619030693078 -2.3947141200429742 -1.984821901988512 -1.7335667460262394 -2.037852540123803 -2.608349804530611 -3.126747747378786 -3.509839283579701 -3.7487013432257617 -3.8360579065209164 -3.668991817157775 -3.058782536368341 -2.300527526669245 -1.8378849488904043 -1.863825807098188 -1.9064680206758475 -1.783413171629046 -1.651741172958198 -1.6078542614787474 -1.6301484261234542 -1.579358844075 -1.3878589367184033 -1.1581807153400807 -0.9053961560752352 -0.6580113397243296 -0.4329597706575079 -0.269501880337851 -0.21255440100734294 -0.33315232875914685 -0.5954066552701852 -0.9395963867304107 -1.3014360471296567 -1.5883152988719758 -1.6681937783114698 -1.621024045318882 -1.5964052677749545 -1.6530631756743681 -1.7325226605992825 -1.814412935624394 -1.8134636113034446 -1.6515916879340815 -1.3297662585394225 -0.8931906228005185 -0.3744349854173283 0.04806840439769868 0.16057753119834114 0.019835588961810507 -0.1716331232631293 -0.28103491653452956 -0.3203917251160003 -0.3428088210534856 -0.35734651360967595 -0.37002678920022103 -0.38065535172450293 -0.41961663350811873 -0.47772799390615783 -0.5040320795446568 -0.5106871756796301 -0.5042050885398214 -0.4982442416920455 -0.4040370619072645 -0.2723617935919651 -0.334247363369121 -0.5577739665317214 -0.7360815403629407 -0.6920840545384552 -0.5424295018170969 -0.36587313982375075 -0.1409933179596923 0.2060762031180257 0.6811038851808128 1.0432954948690174 1.1324471140097239 1.0564712063358805 0.9724110881309354 0.9296405147579971 0.8347798350654257 0.5464324434459603 0.1747190191321702 -0.1925809733015964 -0.4842937623780741 -0.6024004304526169 -0.41079251830181435 0.009311612769188356 0.6074788496820142 1.277565452203611 1.8471967947645964 2.132001584273068 2.2579306223778572 2.295296968452185 2.2118422008018284 1.9845576078867428 1.6288436725033897 1.2088238365094193 0.847992414413209 0.5943781419934926 0.5190584758592731 0.6561738314321961 0.9358075689749943 1.2192453534855527 1.4268528863953762 1.550113110413605 1.5769849067881299 1.5492666060678644 1.450208387315052 1.3254366084727964 1.2383717593231642 1.1779470260668 1.054895863101189 0.8343641312973185 0.6464003348744443 0.5263979546207758 0.4708479284834336 0.4494832740012109 0.47201575903919174 0.5824740871694752 0.891892533342757 1.2921950035651044 1.6326323443945867 1.822588738376702 1.8688642718006547 1.8007781996697827 1.6942024217028326 1.6782247824628824 1.7955923308328057 2.0049600973263018 2.289310907559762 2.4668428768753654 2.4446398134121283 2.223524294564142 1.8788630255028835 1.4514819246171276 1.0449923134403807 0.8428121986258782 0.7888324649471361 0.7523071643771929 0.6569657058318183 0.5458192074831208 0.40213022673807625 0.23660689231430032 0.05258013713953253 -0.12559713764848512 -0.19325745108361786 -0.016775045526414428 0.25591065909924327 0.48256011995317644 0.602136384236131 0.643716193598774 0.606885394956468 0.5529067628141654 0.5299619105607863 0.5707649601713971 0.738724850064323 1.1100407915373551 1.4395916637289818 1.4464355668351176 1.1996277830015734 0.8629890437160028 0.5586196676926752 0.31593948110348596 0.1861298877811868 0.1824805523887254 0.3175151349464828 0.5494537761579296 0.6886121882910029 0.6030083787959224 0.4469186372111281 0.3148628141637954 0.24388344782832347 0.21624425169038095 0.27544268010537276 0.35082217130584925 0.3499425270080932 0.25953140336608205 0.10020251069469732 -0.12042826906015375 -0.3294108341877549 -0.40288891401061555 -0.3527235153800948 -0.26833879071014555 -0.21968177324552718 -0.18989004296471312 -0.08507242051619039 0.03843078759337455 0.10267731663723387 0.07828551671502712 0.06827749732193761 0.20405510115095551 0.3086139299638235 0.16296963315232613 -0.24702747923827043 -0.7225330915229218 -1.1770535174378405 -1.5529983304232595 -1.6771081234513268 -1.5505462909948131 -1.286066150957589 -1.0501646966640656 -0.8759251822082526 -0.767490173071357 -0.7274823707783454 -0.7288479128387726 -0.7498999986955494 -0.6565492123026432 -0.5148176958570746 -0.36900089565891137 -0.28763223078794775 -0.2949623902203896 -0.25169801708107187 -0.19211879835826193 -0.08778309238159025 0.182226956622791 0.5862210062380043 0.9297946921563575 1.024098619110641 1.0578724098940668 1.1555443194850796 1.268461048574459 1.255747792700245 1.0353987350655112 0.7817854066681854 0.6953447097178409 0.6991709326933556 0.6236529794747677 0.40375310066003534 0.2006284140167084 0.27078408846212854 0.4416802286377091 0.5215943162772089 0.44638069192056967 0.35621702344262834 0.375835186965941 0.3874900624905416 0.2755155998242869 0.07629376429948433 -0.018902268888746552 0.17288080053966395 0.3872186562751276 0.4806758862184469 0.4354701811683075 0.27964206947946324 0.0009886955789051612 -0.3090731561266001 -0.4920197000070497 -0.5173506428066129 -0.3696470609819004 -0.06355662468633677 0.27218587176067893 0.48573488594443043 0.5741900582007291 0.5398548114742261 0.4352952916068049 0.4246523125074242 0.5953376267514634 0.8393205875197415 1.0904220344639655 1.301538885915437 1.4336925208990554 1.451578728682203 1.4051965530916304 1.2626447950708117 1.0689480533365074 0.9122936078416017 0.8945261492585371 0.9430744930089006 0.9874987635243829 1.0266504822142477 1.0710372174884026 1.1093877536902577 1.0626456344821722 0.859522749424061 0.6197566947030648 0.47225859229780154 0.4665509007992058 0.5236985154050674 0.6576029480583981 0.8085024027780203 0.8884668760719414 0.8707376490500032 0.7647460042067705 0.5719228949935289 0.3695560674632571 0.25108020656402885 0.23039548056426096 0.2974505322225565 0.441529133526339 0.5577474796883242 0.5764640663982146 0.525460817820732 0.48536408682810744 0.4961335548995192 0.5098509733738759 0.21882110302107835 -0.17348252507770495 -0.5148449791858111 -0.7200588820692712 -0.7249360608615225 -0.38951529688084996 0.1336525227094607 0.6865013029321292 1.1442823918741791 1.3440408427452533 1.1171977118497702 0.7879490890699572 0.3520044399728767 -0.09205680021761314 -0.3831147042590502 -0.3858906661891174 -0.3577646147139807 -0.44497912272287 -0.5664517717942031 -0.5865316235991574 -0.47270356541750824 -0.39197035095782656 -0.6476718117916521 -0.9932048519409831 -1.2082106819902572 -1.2329648742068482 -1.143698337043914 -0.9767238605212643 -0.7185290379740584 -0.41026115819747927 -0.12753003510624783 -0.009117241264407324 -0.18080262966129731 -0.3639140223760909 -0.4436926998676744 -0.4287758975317435 -0.3543316783646665 -0.2324905181065504 -0.12038730604747774 -0.09530048472131 -0.10383006392351248 -0.06769471939150985 0.04921363593593278 0.22158182790059913 0.4241010078848012 0.6136285790861106 0.7434420499104083 0.7964078968764922 0.7783295995921446 0.6688060438716816 0.5812847924011276 0.7172888551627643 1.0128122890273443 1.270294305850341 1.3500258085761943 1.297270380093416 1.2004694940964016 1.050485487761797 0.7911242955627501 0.4073040914276715 0.09271141181232348 0.09627953221966058 0.2568475916507215 0.42137773382970817 0.5339473519613367 0.6679764451149506 0.8321579270160165 0.9249427362954599 0.8698999423077963 0.6757725562780568 0.4570064087911672 0.28299251833123473 0.1169189194709884 -0.033906723418117714 -0.1558499178553684 -0.24021224233039787 -0.2807486072040121 -0.25795744778694735 -0.12730819294930873 0.053528777769343894 0.16794161472011374 0.13492477883296325 0.032029922606570074 -0.046463550629463675 -0.10756483696331678 -0.1745586864260961 -0.24801700183576592 -0.2918972417258377 -0.2716428131634612 -0.24522766752606467 -0.26711365876378584 -0.329923915244554 -0.3448397896703655 -0.27178075198261514 -0.18166603932087907 -0.10113447288973841 -0.043023245175188594 -0.003925770384661498 0.009682973891300706 -0.0062116687168805 -0.09794973295136668 -0.22636508260193663 -0.3388380711522219 -0.39670696513030546 -0.3855983868928744 -0.2202043942652742 0.005443105406035474 0.0952688088719392 -0.0234945795796846 -0.25357691074493116 -0.5101057840910901 -0.7008654990680425 -0.7369416753250934 -0.6031737437621415 -0.34027864261056356 0.011480176720036045 0.31249504761564795 0.4287110872112755 0.4189147494682247 0.4727709624224709 0.6849467587291916 0.9583165034533995 1.2201413592405088 1.4193063470941556 1.5261512804158164 1.5189406864468002 1.4117455072263068 1.1865982906808272 0.8908422225642341 0.5856334688079806 0.2971626176706683 -0.043625180978110724 -0.47957250824059616 -0.8902468937513501 -1.2278059758865156 -1.4219026005775324 -1.4220630079352339 -1.1361202009103286 -0.6863541302301666 -0.2556230067390837 0.10131520858050291 0.38467563640821667 0.5828332821588312 0.6694269242554114 0.5601111960520766 0.3581614617108873 0.1716765654749797 0.07224053863380404 -0.06126561810194225 -0.30234304301381415 -0.5018831255036704 -0.49394764795028695 -0.23577101427179178 0.1367143125042952 0.5077464099087995 0.8608861368277863 1.1748408737352662 1.408497606257108 1.5225082838714938 1.4760902637326598 1.3544081387473068 1.167012936867747 0.9629118654295337 0.867345084723511 0.9917645785530042 1.1865098383878956 1.0534743163524334 0.7532900144194312 0.574579350429643 0.7212169169536778 0.9833390968094793 1.1648500713189718 1.3259117704917593 1.546178995745373 1.7568527635184388 1.6718158862721892 1.0905629959049559 0.45966925992052055 0.06900541123474625 0.0018203291857335608 0.0616285372249796 0.23785627341971188 0.45302826004830477 0.5469102029637576 0.5243536071095758 0.4342993205617999 0.30100296032562207 0.17493288975329127 0.15534274483014252 0.2512186634362767 0.4563580013712687 0.7437348447733977 1.0089993122048118 1.2279737112922946 1.3973482298630215 1.5115656416297603 1.5565273407737708 1.539380164672816 1.459743057208902 1.3065058013128263 1.1226243148295867 0.9537681015513327 0.865946822545232 0.9162272480260292 1.0136423583396925 1.06742171128854 1.0664074677293252 1.0450185166994652 1.0372781521795074 1.0597160136060686 1.043328500735244 1.02444028120438 1.1051413868105546 1.2974755767985313 1.438062904755512 1.4024174863924304 1.2519274401610745 1.0174239408096397 0.7110319267521193 0.29373894856562255 -0.23809080171847155 -0.6884649092583238 -0.8614492114715205 -0.790066983444114 -0.6513772932743058 -0.5643939698564936 -0.5189054910738942 -0.570697822941287 -0.670112493438204 -0.7293505232843097 -0.700216183208093 -0.5702201135543694 -0.38220591950780924 -0.1887627861849349 -0.05014767394857276 0.003926438717490925 0.02016183235527592 0.020726148407857314 0.03849204184154865 0.0686726496270725 0.11042371332765442 0.13885865634631211 0.16583309721270975 0.22758672156834653 0.3268645579012066 0.4571063262222145 0.6205778731987879 0.8234803532244596 0.9631315889828486 0.9269810877042802 0.7548762863669984 0.5182621690293866 0.2740171014611833 0.030431488613734174 -0.1507238152529984 -0.26433766742237247 -0.31514454964226896 -0.32148571120940367 -0.3414267588728998 -0.4522325531285976 -0.5669147252338677 -0.5807945658999363 -0.4850926854575459 -0.36695544962173265 -0.3796597639356938 -0.423616034447227 -0.2902119772704524 -0.04345400668921606 0.13652840995454274 0.028935192958771144 -0.18111082502759165 -0.3198936486869291 -0.4475858860462244 -0.7228731056775365 -1.182014040069228 -1.4598217002190554 -1.2782949005700015 -0.8780007371501564 -0.546316263029057 -0.4274399981945607 -0.3207996553207283 -0.11958633853261641 0.05660696856142679 0.09549588826998949 0.011204517629155744 -0.08677706051003396 -0.15418355374327522 -0.22582220330308678 -0.20669588608088219 -0.09932454277979047 0.07923524799348505 0.28045376097711633 0.42176019465861486 0.4277323500159007 0.3325926854470327 0.19029013449906013 0.05579074831624746 0.030675227849644517 0.2170714251962899 0.46415472887295 0.5774634075771115 0.5050251356345254 0.38916559019396135 0.5239260782511703 0.7641898931543776 0.9648030930101253 1.0841390539858833 1.1103503529037229 1.043631056414414 0.8614095053865097 0.6067073677286249 0.36972203077069143 0.28499723396082716 0.46414386154625803 0.6387527336634452 0.9295098187072368 1.217542999183487 1.3562186068245274 1.2679383253804515 1.0862728008468274 0.9554004540686598 0.8349254368335538 0.7495208991531104 0.7018745994385267 0.7363385637676702 0.7892050062339444 0.7457247564294476 0.6444968309605139 0.5317049820745068 0.4729613393407912 0.47933236946709673 0.5781038729021858 0.8633502585072192 1.2011052284918864 1.3975599752003909 1.318552901319067 1.1575517272906837 0.962557860651544 0.7338991012264502 0.4497410888120691 0.14323670121748427 -0.08318728577469589 -0.11073775717542592 -0.025574518501750576 0.11160611290112118 0.24716449542414864 0.31509825534281033 0.22255404428608086 0.004458616688422072 -0.40862809539251377 -0.8866799407560156 -1.2056278144603492 -1.1624298781084275 -0.9093241006530294 -0.6648399525303929 -0.45078988810186127 -0.2113374753465305 0.08210308561784052 0.2699650279924495 -0.128691478465041 -0.7826333877013179 -1.2629150681372698 -1.3908149867404753 -1.4746827898829626 -2.053329614489318 -2.689236160553453 -2.975320500449621 -2.8470925893170493 -2.6331617466389003 -2.6991150978441976 -2.653080963505342 -2.2833575486820954 -1.6982528795584722 -1.248735124899417 -1.2348982582811925 -1.254152133018946 -1.2714411638944554 -1.300475058234049 -1.356392165263803 -1.414238676623116 -1.4147951618701837 -1.3820442203794787 -1.3231701791053028 -1.2098316497670105 -1.0532822508975852 -0.98273033176506 -1.2603559986695 -1.619715970065762 -1.8271295416012912 -1.820838316339162 -1.6725183699218646 -1.3948786043047516 -1.0232906471668817 -0.684850815016734 -0.4504937270102869 -0.4003676228862505 -0.601977592603245 -0.788151522499306 -0.8157003185669442 -0.7172735205712407 -0.6054882830778051 -0.534215911597827 -0.5002041319838979 -0.43372476298915424 -0.3124413791059327 -0.13175422663436337 0.09523596821478578 0.3585873210714457 0.6721116916887163 0.9209060611307838 1.0237761250035833 0.9799890732559293 0.891355811436108 0.7535730117950397 0.5371403798919466 0.27167759671874286 0.011907456677103447 -0.1653996533669104 -0.19499283681984997 -0.11519492804768888 -0.007924158362688562 0.09063604547637685 0.16891241605335244 0.20723297291379525 0.21719522914865597 0.006040022705045924 -0.2839134518841021 -0.4832844794949327 -0.5306919886196894 -0.5300406473948672 -0.590130124859804 -0.6059146153461205 -0.5229815670045802 -0.34863940451394704 -0.1832335995514836 -0.09241971964538033 0.06864849973371791 0.3634482143466356 0.7020215029709596 0.9115927976919699 0.8458708646905835 0.5952973100968836 0.16734451547664048 -0.2839075015332198 -0.5672463477118326 -0.5430767417022311 -0.32483820087697757 -0.0003121006774790429 0.3404287291676197 0.5858412683432007 0.6697268505167269 0.6718892238699162 0.6741217292540788 0.6924822446730877 0.6308127475284105 0.4915036219237111 0.29449689047229544 0.10577450195075366 -0.03768827894520921 -0.09815345600754334 -0.07630501881031027 -0.020585156277994992 0.010380957045201285 -0.04673696545188204 -0.20319974019021553 -0.36455935001770845 -0.41224486229620794 -0.31069821192613134 -0.11654658370723282 0.18068126688142763 0.45923314712923474 0.5304523818516379 0.37003822621927046 0.19931661187716346 0.22521657480938514 0.35349846861514217 0.513074704305162 0.6770151975633714 0.8508463941664398 1.0569126772446622 1.168147844291237 1.0096959170460955 0.6524600828514129 0.23916130699393406 -0.10212250702485527 -0.3807092502044876 -0.35600984508482386 -0.09698537518625276 0.30095546168374715 0.7456717682733848 1.0791508761908932 1.0544122031455752 0.860787521263191 0.4982768305437379 -0.033119869012784096 -0.733402577406375
1053922973,II,0.2615843658417557 0.14863624382885848 0.03301610444234258 -0.08527605231779199 -0.20624022645154533 -0.3298764179589192 -0.46893083517255796 -0.6066856523214857 -0.7326167331495654 -0.8390836654555103 -0.9214163556738232 -0.9780016234557357 -1.0103697962501492 -1.0232813038845723 -1.0248132731460624 -1.0356126896844349 -1.063307738280086 -1.076386073766894 -1.0584180326001982 -0.9992230685662885 -0.8946495262871202 -0.7463544147250234 -0.5617759830008746 -0.3546711591592416 -0.1424725400567425 0.0713090773325596 0.2725048951398473 0.4489653886589291 0.5839512447780097 0.667193236706774 0.6946899267313843 0.6685868849662757 0.5961397506806259 0.4899472183592943 0.37067058895133637 0.26658790951006084 0.16995157515311715 0.07150781540246164 -0.029631942852032776 -0.13400583839408442 -0.2416662545736453 -0.3522619999271122 -0.4657537786590669 -0.582143332409625 -0.7058010734187304 -0.8603435629094587 -1.0044561423765062 -1.1070218598415047 -1.1469182801823012 -1.1128156827415006 -1.0029755495421053 -0.8250490535031553 -0.5966204870365748 -0.34450786985897963 -0.0982560261918302 0.11560546263758116 0.318436086721143 0.5045728710027475 0.6708158545172408 0.816115663122467 0.9412610822313112 1.0485666295437446 1.1415601277788672 1.2265533211483424 1.3326158565933415 1.4550725977372776 1.5536667846835535 1.6043438748951706 1.5922294073048067 1.511391854664208 1.3646791363599415 1.1647233350507873 0.9310947113442439 0.6892659633281989 0.457323280166642 0.24126157871504395 0.0405520324306272 -0.13581743184533154 -0.2821233332372192 -0.3956199753545273 -0.4762527848112928 -0.5265578470354886 -0.5548801464153668 -0.5757455367039119 -0.6174648426820312 -0.6599927864804769 -0.6913860902266009 -0.7054679421364455 -0.6986391052921519 -0.6698605382982398 -0.6206360159378852 -0.5549947498292026 -0.4794740090815218 -0.40304092589945323 -0.3363561410534543 -0.2708088513940649 -0.20660478250619127 -0.14387818860451596 -0.082693946156374 -0.023049647504628106 0.035122305509455075 0.09191103282972858 0.1474107872277786 0.2043738462695666 0.2627783590499458 0.317161529230305 0.3636072709007616 0.3995468565944207 0.42373720457634023 0.4362391661324961 0.4383958128587474 0.4328107239498017 0.4234313660858939 0.4189681732021043 0.4175376605802964 0.4119651639304964 0.3988170999420188 0.37579748588415873 0.3417743107223254 0.2968059062341739 0.24216731812573836 0.18037667714756422 0.1152215702108412 0.04336874070461676 -0.02698020856019613 -0.08809017263521006 -0.13345503845632692 -0.15904734610821042 -0.16331245608310163 -0.14718576740356049 -0.11410993574520897 -0.07005209155947238 -0.021703668735260303 0.02716990036046439 0.07067866080793249 0.09877768127965926 0.10380087902283808 0.08109861654214559 0.02909683775138011 -0.050643795874899436 -0.1533687691497361 -0.271070577022136 -0.39517429348813926 -0.516648452115678 -0.6367823976914248 -0.7492443575834885 -0.8495028956077196 -0.9348872172092898 -1.0046474746442706 -1.0600150721612134 -1.1042629711827294 -1.1427659954870688 -1.193889214097751 -1.2534900473024482 -1.2982161394256606 -1.314242459292456 -1.292899829999338 -1.2305827114684833 -1.1286569830019837 -0.9933677258360846 -0.8357470056954277 -0.6715216553472899 -0.514127217265698 -0.3686426019089534 -0.23647258196007367 -0.12329706090413825 -0.032264298165800294 0.03591282509593523 0.08286054019292534 0.11244792511311119 0.13069063872573347 0.14588676733834344 0.17113070222168641 0.19644074903607706 0.21703150853965109 0.2304723763589975 0.23533327157002848 0.23118405185322605 0.21859392864888877 0.19913088231237902 0.1753610772693694 0.15519579012737655 0.14840135312972058 0.13428016228586281 0.09866601434228878 0.030815576471567744 -0.07633353013448238 -0.2259046466716382 -0.4168239931301045 -0.6435625847013575 -0.8958781481849778 -1.1784014429641845 -1.4760267528941826 -1.756541295770642 -1.9873618048217874 -2.1460333504024875 -2.220430588772269 -2.2089590108733437 -2.1207561911086166 -1.9758930361197116 -1.8055750335649847 -1.6431946510600424 -1.5011019876163945 -1.3737223281345774 -1.2702760692107158 -1.1964073085008964 -1.1542412821749206 -1.1424418023700702 -1.1562686946448613 -1.1876352354328072 -1.2251655894961768 -1.2637544003804155 -1.2970859518516442 -1.3187581974682587 -1.3219862245514378 -1.3027831145610993 -1.2599319142090482 -1.1949576065721186 -1.112099082205322 -1.0182811102549894 -0.9222941429555189 -0.8340965340031941 -0.7494032216878455 -0.6715765037324742 -0.603083921779218 -0.5452061477209466 -0.49806323594996577 -0.460640875606722 -0.4308166428285052 -0.4053862529981539 -0.3807404726145426 -0.3536602460062583 -0.32572249552860677 -0.29562573280052334 -0.26252110467973117 -0.22600463689993744 -0.18610947770803157 -0.14329814150127967 -0.09845475246452275 -0.0528772882073726 0.004087918241082626 0.06401101458277525 0.10726732876673296 0.11780158030974026 0.08426594207699248 0.0002490820901271129 -0.13549479466475217 -0.3188169044290414 -0.5399448428636131 -0.7832535432407811 -1.0428983217663776 -1.3053815666069863 -1.5588572700656957 -1.7890835001600436 -1.9862985230959496 -2.1454464590576063 -2.266402937997369 -2.3542007554256417 -2.41925552820077 -2.479615859314559 -2.573391525221632 -2.6627522243508914 -2.7257856810784244 -2.7488575310925745 -2.7242564371029094 -2.6501367330062813 -2.5304610680528796 -2.374943051012289 -2.198989894339542 -2.01876859646186 -1.8517979745161302 -1.6966727589409598 -1.5665208437355718 -1.470081394127697 -1.4117716210189564 -1.391753555430242 -1.4060008229470915 -1.4463654181650727 -1.5006444791351599 -1.5600691423939217 -1.6135763065311648 -1.6566270010422564 -1.6782697539533156 -1.6714223399825512 -1.6328315370119635 -1.5630328825590525 -1.466310430248516 -1.3506565062839584 -1.2277314659195895 -1.1015626256078515 -0.9831211428893807 -0.8813075300317884 -0.8070531866850399 -0.7671958071256457 -0.7644998032528877 -0.7976767275850551 -0.8614056962556729 -0.9463538120097358 -1.039196587199938 -1.136719873237004 -1.2285456765711213 -1.3042749948907464 -1.3541223706886867 -1.3722101069483692 -1.3565697747758254 -1.3091437210316768 -1.2357865759631204 -1.1462667608359134 -1.0539293596718455 -0.9756604809927694 -0.8991734721078884 -0.8258000921854949 -0.7564250044587004 -0.6914963474101204 -0.6310363059565568 -0.5746516826336806 -0.5215444687807183 -0.47052241572512987 -0.41930725826989373 -0.366853358056937 -0.3160882344208791 -0.26829943204022955 -0.22431882303267556 -0.18453114024038758 -0.1488825105153231 -0.11688898800453267 -0.08764508743546377 -0.05983231740126366 -0.023919852984111235 0.014618534068396727 0.04267010611157457 0.05091280487122646 0.03302833121353922 -0.014223501131212079 -0.09093041184495451 -0.19395330029811564 -0.3168518918259144 -0.44981038400465556 -0.6080792061772972 -0.7615242811246604 -0.8823750975387854 -0.9484645392464622 -0.9467604605228751 -0.8732224056484952 -0.732658328465959 -0.539010941697339 -0.3153652635203274 -0.08924309326343297 0.11547934185260944 0.30649749836005635 0.4738865721579118 0.608898922893608 0.7068206651021894 0.7667480029685544 0.791363565089709 0.7867127392370077 0.763066015679352 0.7342872790297816 0.7155148036490431 0.7015359197974271 0.699698990123895 0.7151963365057643 0.751017545434881 0.8079027734037864 0.8842960522918867 0.9762985947516223 1.0776220995946335 1.2043211753649152 1.3376383544232062 1.43634379252482 1.4682271603608201 1.416715854659218 1.2787000752252953 1.0577023515973456 0.7645529515369089 0.41813843501585696 0.04615020820345441 -0.37169935743162197 -0.793381411103677 -1.172239637223782 -1.4578939932679527 -1.6135322700445218 -1.6198990797321229 -1.480344538849134 -1.2181871420379953 -0.8777208313084399 -0.5242221217867632 -0.2216463748152087 0.048297616840693995 0.28421543976045954 0.476535815657836 0.6208149899813338 0.7173393609281599 0.7707281084581481 0.7895358233076879 0.7858551360036649 0.7740404270056166 0.7739727105122796 0.7789018068802156 0.7986811025172846 0.8405347150693219 0.9089503570310914 1.0055721993572317 1.1290937350732126 1.2751506428862847 1.4362136507964294 1.6033630567204868 1.7690976475743596 1.936792791542045 2.103023553080244 2.2653135803208744 2.422182829419636 2.573195288904587 2.719006704024716 2.861412301098508 3.00339451186252 3.1777609722027007 3.3606470219932887 3.5077191934539673 3.5884683642541493 3.5840629297667923 3.4871647386769236 3.3017450285901875 3.0429003616413905 2.736668560103034 2.4198446419938606 2.1215059817607886 1.8495870266364072 1.6114719602799112 1.4200492152626556 1.2821618253924907 1.1988499878649317 1.1655936254143415 1.1725549484651088 1.2048210172828204 1.2442971283094157 1.2730658125634322 1.2962952585013443 1.305926852797263 1.2955988576579283 1.2618868948279838 1.204254828333808 1.1250056472273482 1.029232348329957 0.9247688189762221 0.8215333186771046 0.7283698040568888 0.6385121247559085 0.5533533736150654 0.47354858136798955 0.39909327657997123 0.3294043268470152 0.26340077999489714 0.19958470527821745 0.1361220345794544 0.05864575395318971 -0.025603167724849597 -0.09395771486976903 -0.13070931578450862 -0.12677359058862603 -0.07868703531129623 0.012636453073208811 0.14171543419088747 0.2983107818133664 0.46723554140326495 0.6567449692834038 0.8417597036069009 0.997306684930301 1.0993231490144773 1.132111304320745 1.0898279456555655 0.9773801645377989 0.807323308912545 0.6000578030694378 0.38331275779581775 0.18192023348572633 -0.013038692210338583 -0.1967798319083936 -0.36147766255023417 -0.501539535170204 -0.6133633050958281 -0.6961102542889751 -0.7541532315952795 -0.7962875499722588 -0.8427085517472124 -0.9169799005854897 -0.9786547997155638 -1.007353624995163 -0.9897922975797068 -0.9195879203806022 -0.797064414523552 -0.6290586614520723 -0.42950638296779514 -0.21819514525586522 -0.005771682399331055 0.1925744466389497 0.3682075657866743 0.5027398778029702 0.5848980053508557 0.6102048995371516 0.5797405528481572 0.4999899774316644 0.3827314475327951 0.24689825682787878 0.105169761658048 -0.028386117490635014 -0.14697710942381226 -0.23608046715173298 -0.28578880537564505 -0.2911909098719749 -0.25321398540123763 -0.17825051591709604 -0.07824933750950072 0.02911248665039121 0.13024749982333417 0.22255597701030017 0.3023238699025936 0.36346034083301504 0.40247042172316133 0.4184242803931991 0.4128478505867596 0.3896442756105026 0.3550485035046394 0.3179813199252525 0.29088478615589575 0.263456853626285 0.23415713582904096 0.2020967945238188 0.16675101861062838 0.12797590148570243 0.08595531146405848 0.04120797427732878 -0.005391873036063769 -0.05813584363337458 -0.11662527038216451 -0.16686965547278443 -0.1977633983632699 -0.2020088809291949 -0.17606425968993888 -0.1201423077138179 -0.03839779460174761 0.06184015242029044 0.17016039227436533 0.2769803096706069 0.3768483380976176 0.47200013256041085 0.5583964546969611 0.633361926668798 0.6955138188133584 0.7446908372963418 0.7820109540078707 0.8106592946598752 0.8357467513142829 0.8631864691630555 0.8931083825047532 0.9246520708179808 0.9587800911928712 0.9961156328354674 1.0369360728145594 1.081166531808516 1.1283734298521233 1.1777580420834155 1.2298315681754484 1.2964511741637963 1.3571452288352976 1.3959183153051937 1.4017169297952874 1.3684987220442575 1.2951379138166474 1.1853307174118497 1.0475007541730965 0.894848833696928 0.7421653580901441 0.6038908457654226 0.4751199624557353 0.363825442018713 0.27511667576077503 0.21134620068561816 0.17221618774270073 0.1548849300757276 0.15407333127113682 0.16217139360658048 0.1614805611462203 0.14991777131454503 0.14841142017747488 0.16790857254548375 0.21635154870320525 0.29848426999424316 0.4156586044059763 0.5656407121543741 0.7424173912688037 0.93600242317684 1.1488105829807997 1.3660208074860367 1.5707379501085206 1.7458711127792548 1.8798908998670079 1.966902685166274 2.0068385932257167 2.0056494806766207 1.9754969175613355 1.9349451686617212 1.935030562937847 1.9318689528394257 1.895948471183423 1.811258709141483 1.6700910573750962 1.4736179627355503 1.2312707175249393 0.9558545116052448 0.6638309984089843 0.36861958252335125 0.07880509964915967 -0.20368785915340662 -0.4558331050026522 -0.6605268739500051 -0.8061308256031282 -0.8860150417490444 -0.9006912670516577 -0.8619970825596575 -0.7915522825751928 -0.7208454588356942 -0.6741919454803432 -0.6284057829951792 -0.5840106006844998 -0.5413462643824741 -0.5005719488631332 -0.4616692102503635 -0.42444505842790353 -0.38853502944933266 -0.3534062579480693 -0.31189587044186395 -0.26877478048734066 -0.23453037068242819 -0.21676081776799255 -0.2204938628474888 -0.24815659114316535 -0.2995452117522733 -0.37179483740326696 -0.4593492642120136 -0.5539307514379959 -0.6360750618109566 -0.7174942412715997 -0.8106703578978769 -0.9229044129453007 -1.0592436806751127 -1.222348176799106 -1.4123571269244806 -1.6267554349986526 -1.8602401517541025 -2.111092591515846 -2.403674242656228 -2.6835490392131542 -2.904584888399144 -3.0339771458355322 -3.05306002737757 -2.957237559193207 -2.755914527841883 -2.4724274303533007 -2.1439754243062246 -1.8173997311448462 -1.5391162486249221 -1.2786887583190425 -1.045665238122131 -0.8457624265123033 -0.6810717657166269 -0.5502653448769202 -0.44880184321550104 -0.3691324732009753 -0.3009069237140036 -0.22520611403136445 -0.1403840201006961 -0.06542845339480394 -0.008626448783498454 0.024633265531251215 0.03184522472630465 0.013372184068337307 -0.027569924375166786 -0.0849270350249272 -0.14982199207887828 -0.21078903714032224 -0.2682335049446787 -0.32620064088820094 -0.3844789993464664 -0.44292770178964985 -0.5014783696763836 -0.5601370573476119 -0.618986184920443 -0.6781864711820107 -0.7383882210258316 -0.8116567681061622 -0.8820774662091981 -0.9374134670818224 -0.9690478297164287 -0.9719171442610245 -0.9444971491754491 -0.8887883483875882 -0.8103016284495949 -0.7180438756941031 -0.6207883283105246 -0.5273684715053762 -0.44242536075057837 -0.37899246503582906 -0.3461678133361423 -0.3490918313406767 -0.388925178181537 -0.462826583162598 -0.5639306824883169 -0.6813258559925446 -0.8118378702438058 -0.9434713256098848 -1.059644223544354 -1.1401136884061036 -1.171570943661822 -1.1475844996748812 -1.0685433414942378 -0.9416001166433237 -0.7806143229089378 -0.6060954961301479 -0.43542229816727507 -0.28087439448756274 -0.14420815495200096 -0.03565715129852723 0.038614094502085694 0.07641072137868085 0.07940814029215959 0.05305264536794426 0.006462025028415014 -0.04767382687462826 -0.09158184538470043 -0.13216589778320367 -0.17516973700497138 -0.22187208785598486 -0.27310441013842324 -0.3292386822417882 -0.3901751847340158 -0.4553302839525963 -0.5236242155956968 -0.5962596267297521 -0.6820424780444745 -0.7614976127874047 -0.8188405239517045 -0.843135398301724 -0.8283526853186253 -0.7733170189952092 -0.6816551396307272 -0.5617438156257156 -0.4266577652768121 -0.2881507246089635 -0.1595575636942061 -0.0439104752187071 0.04554690332250657 0.099924479670447 0.11466013179098064 0.08949413286365085 0.028443576270492352 -0.060223199415151155 -0.1640121854398082 -0.28141407269137747 -0.3968893683075388 -0.49316644674583493 -0.5508419574403043 -0.557731472609224 -0.5087444012763551 -0.4060284136413305 -0.2591498282326912 -0.08306640131328107 0.10183772219283282 0.2905050071996823 0.46754442862806533 0.6202024165911821 0.7324198469518604 0.794257555785883 0.8016480419320238 0.7564714664872746 0.6664472659002009 0.5465956234557302 0.4181874732997685 0.30249357770968766 0.19311215357132508 0.09317589679624208 0.007821208203037205 -0.05973950280570153 -0.10813963484977082 -0.13778966883547655 -0.15164677037325452 -0.15544666077650846 -0.15870515842551686 -0.1724464984891842 -0.18409658386154512 -0.19016819192621492 -0.18828821378564614 -0.177190453403795 -0.15670842674878355 -0.12776816093556595 -0.09238099336859318 -0.053636370884475086 -0.014026434140531223 0.02357174482744993 0.05838297210491626 0.0877553353163913 0.10995564167081232 0.12416179718717706 0.1304551859201956 0.1298130491859367 0.12410086478747885 0.11606472624055968 0.10813877948155273 0.10166312256982116 0.0967340313735843 0.09457069630287061 0.09594574576472784 0.10118635839904382 0.11017537531436836 0.12235241232373466 0.13671497218048054 0.15181955681407028 0.17348252183639779 0.1931727496448428 0.20345796436746433 0.19854073035991399 0.17471736692912473 0.1304241924863264 0.06628376870007409 -0.014848855350737393 -0.10783989902384784 -0.20719602358023795 -0.30891767397837716 -0.40811497085024667 -0.49557898596154404 -0.5645351873034273 -0.6109430058227444 -0.6335414292209438 -0.6338945957529827 -0.6164373880262439 -0.5885210267994385 -0.562445709652296 -0.5467605747228447 -0.5279603235140155 -0.5020840866514112 -0.46656462172527097 -0.4202005666674092 -0.3631286931281477 -0.29679615985325764 -0.22393276606089305 -0.14852320481852554 -0.06529012475095763 0.017305726319711317 0.08462622767967479 0.1234337034056457 0.12476243174170863 0.08400986188183313 0.001027830752372885 -0.11978622020542314 -0.26939802825290343 -0.43404529257151586 -0.6181001018894631 -0.7994744705002869 -0.957279669163753 -1.0720449813738786 -1.1314823057804744 -1.1305399642345093 -1.0714565098334898 -0.9638145349668081 -0.8245944793611274 -0.6777457649821573 -0.5514116755516485 -0.4332293397421002 -0.32437243365082946 -0.22785675174518286 -0.14520653237358094 -0.07650882583658623 -0.020467862457951243 0.02554057934433053 0.06541480498695867 0.10445530272312478 0.1478585452674495 0.19032887100813223 0.23140230057641978 0.2708426254194947 0.30861983040281554 0.3448885164124512 0.3799663229574168 0.4143123507720125 0.4485055844181556 0.48432638767202174 0.5216186541834755 0.5577418197869944 0.5910144333811852 0.6202970801061775 0.6449957545506344 0.6650695884837062 0.6810385785869782 0.6939913141864267 0.7055927049843664 0.7277526120372113 0.7509086869821987 0.7612877889118475 0.7499153017130047 0.7121018022540838 0.6463005422595934 0.5536558011517286 0.43811671678975295 0.3065511162093741 0.1688593463621112 0.031866928445509674 -0.10506023887846484 -0.2397837836443874 -0.3680073932732086 -0.48606497187797093 -0.5921761482411717 -0.6864711342575115 -0.770849473367673 -0.8490624945340964 -0.9356700798880592 -1.056595871583934 -1.1588306545092149 -1.2081652807858518 -1.1827623755432946 -1.072653608308339 -0.8812507220726822 -0.6221293917062205 -0.3149745053912969 0.013855362484298951 0.34887681773039236 0.6717516330163215 0.9778957305644255 1.2397995495723806 1.437576371258163 1.5583821439246957 1.5958384008122775 1.5545515849774412 1.452695153263683 1.320670453944437 1.2014368938588402 1.1056609397387103 1.012077056138838 0.92085708696227 0.8321003362911192 0.7458364682754529 0.6620972595956828 0.5809885299702606 0.5022255314810145 0.4251783724811137 0.343428226872054 0.26249906275141455 0.1878624407027837 0.12341975557430875 0.07162277992614983 0.033517246075064115 0.008786428138992013 -0.004379319923553632 -0.00975534848617159 -0.014356417195176219 -0.03323150517751435 -0.04830790280067619 -0.0489875817204167 -0.028810264427824646 0.015320862494483832 0.08411726372912766 0.1758349464484083 0.28618114074268436 0.40822098004875457 0.5412491805508609 0.6813192221893127 0.8101404086541293 0.9063995675731705 0.9552303968890132 0.948574085092302 0.88646255640389 0.7755452074642744 0.6283266861406237 0.4634022496579933 0.2921748225895102 0.13039317646623483 -0.01540265159742748 -0.12819078442135626 -0.19661289442868088 -0.2147618116898147 -0.18199190487761516 -0.10457223379779129 0.004430372117653995 0.12586226702815867 0.24969853314106458 0.36246799237051314 0.4554795904524859 0.5161365423995868 0.5369029312349238 0.5145298029524595 0.45008461850788906 0.348985270851905 0.22176231335112992 0.08391171274914712 -0.05768449783022339 -0.19589992437276296 -0.3197641060438435 -0.4178243292213648 -0.48275050615179027 -0.5117449869671257 -0.506315367616246 -0.4723651093687577 -0.4202841583188516 -0.3623634780457149 -0.31254975963706566 -0.26820012038684665 -0.23875718252645695 -0.23087950413786346 -0.24840798560493843 -0.2923322760647969 -0.3607571798591401 -0.4488690629855904 -0.5489022595490288 -0.6608962614727079 -0.7756923136397403 -0.8760434823716138 -0.9434941614526906 -0.9659636307618626 -0.9376807288717135 -0.8591185256477121 -0.736928994847381 -0.5838776867194767 -0.4187784006031681 -0.2598875409176434 -0.11647239982375873 0.013361213140308225 0.12288732406904924 0.20822346518611376 0.2682233099112757 0.3043677944829733 0.32066196215059917 0.3235285075739458 0.32169979175388613 0.3417461957756968 0.362633007786717 0.3649131556599309 0.3355244517075625 0.2653347341208131 0.14941860767522663 -0.012665372301903068 -0.21659281961975485 -0.4529967029833414 -0.7130563553347999 -1.0001301017307755 -1.2839758432015198 -1.5312192097229516 -1.7169133632849307 -1.8257809093663493 -1.8524394985498969 -1.8016274281368199 -1.68842924376169 -1.5385013410071675 -1.3784141942137174 -1.2372391011544492 -1.113929069856516 -1.0309391601372444 -1.0039506919759698 -1.0417577586912892 -1.1461537401183095 -1.3118178157859264 -1.5262014780940538 -1.7694150454909 -2.0481927181418027 -2.330898186390036 -2.5730252124649944 -2.7307929595088094 -2.7764518085422605 -2.698065703414277 -2.4992944957514274 -2.199176289907401 -1.831909787912504 -1.4466366344231616 -1.0794966618623503 -0.7527800903793112 -0.4783152715133014 -0.27963056349602783 -0.17050052349140057 -0.1551670462523269 -0.22856050277743586 -0.3765208789678468 -0.5760189142839328 -0.7967863702889605 -1.0176916238943878 -1.2337917198962884 -1.4292045252986225 -1.5882513113744656 -1.7010105652816125 -1.7634754655540095 -1.777711357593167 -1.752013229159609 -1.7010631858642766 -1.6477947376821847 -1.6185336721594163 -1.5862142076473222 -1.5457031238264365 -1.493598229767977 -1.4281940469471506 -1.349447492256445 -1.2589435610189397 -1.1598610100016034 -1.0569380404285873 -0.9467775159422803 -0.8356988709154725 -0.7401894168818312 -0.6759441106518346 -0.6535985195481554 -0.6786778285449968 -0.7515458474074378 -0.8673540178307712 -1.015990420579842 -1.182028782628396 -1.357417419680072 -1.5291451419892446 -1.6882714803235213 -1.8212999359143096 -1.9192766507907078 -1.977876805263612 -1.9974910154098302 -1.9833117305561794 -1.945419630763604 -1.8988700243112837 -1.8733981933519546 -1.8501100324759048 -1.8149205028961888 -1.7611459630892283 -1.6850421311858694 -1.5857331962094634 -1.4651409293139344 -1.3279137950218447 -1.1813560624624768 -1.034180311343328 -0.8954926189480639 -0.7631541554050676 -0.6422363106073445 -0.5362646425014286 -0.44695679524911247 -0.3742851651165693 -0.31653956636346037 -0.27038989713204076 -0.23094880533628254 -0.18779661372947343 -0.13549123129151802 -0.08993075652551155 -0.05943259696019614 -0.049703907032061616 -0.06381853741017333 -0.10219398432100446 -0.1625683388732625 -0.23997723638271534 -0.32673080569702895 -0.41419646430919826 -0.49816891503563754 -0.5812154434653283 -0.6610368355559554 -0.736055048719367 -0.8054342565198931 -0.869101893372673 -0.9277696992419654 -0.9829547643394747 -1.0370005738226753 -1.0991385508829417 -1.1622456167014958 -1.2183437964507198 -1.2623211405418204 -1.2909632413158962 -1.3029645234662552 -1.2989395344607488 -1.2814342349640897 -1.2549372892601802 -1.227109291936148 -1.2159740053997923 -1.2011221156831078 -1.170091195319113 -1.1151496357448862 -1.0322883005495258 -0.9211044450808357 -0.7846856360520028 -0.6294936711482643 -0.4652484986335974 -0.29793131727941125 -0.1344613887068387 0.011976428018108115 0.12249957464359527 0.1841013039606285 0.18966806067007488 0.13799686224968297 0.03381267982110898 -0.11221418098306765 -0.28345069915232113 -0.46770379076318735 -0.649675131107508 -0.8229512770494366 -0.9714832197734904 -1.0841451285690586 -1.1548645667354918 -1.1827527074871629 -1.172234549858556 -1.1331791346093425 -1.0810297601294485 -1.028575305842 -0.9843651347506814 -0.951110894910134 -0.937118300213754 -0.9477791589554028 -0.98553875338234 -1.0498632192481578 -1.1372069253657078 -1.2409798531600298 -1.3515149762212917 -1.4759935640479382 -1.5946263119658917 -1.6904475389300937 -1.749661642699733 -1.76405329075991 -1.7309728595635279 -1.6533218737731696 -1.5395384455029746 -1.4035827135605214 -1.2613922479749764 -1.1302884712480397 -1.0088413311607638 -0.9111981604984775 -0.8470966046850498 -0.8218878923366186 -0.8365601058153221 -0.8877614517830174 -0.9678235317550206 -1.064784612653824 -1.166055449831756 -1.2600263179198787 -1.3497720642110391 -1.428363082259494 -1.4910297315705987 -1.5351913524865255 -1.5604852810719723 -1.5687958639998825 -1.56428347343716 -1.5534135219303815 -1.5464655085215082 -1.544239763954889 -1.540022480338527 -1.5321125762206784 -1.519424130452553 -1.5014832749774794 -1.47842508762007 -1.450990484875384 -1.4205231146980934 -1.3889662492916466 -1.3765796474739846 -1.3615760127045131 -1.3238326015943946 -1.2503439594053098 -1.1342444797231748 -0.9745375450950268 -0.7758254367774333 -0.5490767792005952 -0.30994797951176906 -0.07342467407843814 0.15786097607097044 0.37377976474438773 0.5565449054582507 0.6927724611780278 0.7751161487954993 0.801956393483491 0.7770893830506815 0.7094252037166956 0.6154695044191844 0.5198988938878762 0.44698571654998237 0.3757788857270577 0.30669990853915013 0.23983991675107597 0.17502120913767275 0.11185879384903877 0.04982193077580248 -0.011704326085638412 -0.07337562771863368 -0.1363022124395533 -0.2009997185590195 -0.26671945758759297 -0.3334252560768568 -0.4010918962872983 -0.469705478110852 -0.5392637809934557 -0.6097766258575759 -0.6812662370247626 -0.7537676041381939 -0.8404947863287863 -0.9280534314336891 -0.9996894005362857 -1.0433066381465919 -1.051420121007713 -1.0211265538261083 -0.9540750650018561 -0.8564379023588963 -0.7388811288753125 -0.6162599702909429 -0.5003228179309749 -0.39242200524807114 -0.29746568490322495 -0.2210022170446652 -0.16610334488776485 -0.1334174056628627 -0.12122254156308249 -0.12547991069214862 -0.13988689801221912 -0.1510946565667695 -0.1405783738905848 -0.13853549941680296 -0.16278877410960127 -0.22683363019214392 -0.3395324571571731 -0.5048088677775849 -0.7213419641169972 -0.9822606035403572 -1.2748376647244748 -1.5916298000455622 -1.9181836947606505 -2.241681481593102 -2.541287224937617 -2.80193237630112 -3.014606982096232 -3.176650891434716 -3.2920449639209206 -3.3717022774452516 -3.433759335977568 -3.533611440822588 -3.6497044205399374 -3.7260578682538346 -3.731535922769139 -3.647562452748555 -3.4677742182579463 -3.197674032311658 -2.85428392241784 -2.465798292123786 -2.07123708256122 -1.7157575348378864 -1.3894181556722422 -1.0843591089400058 -0.8032866965371069 -0.5475179840024007 -0.31774041740100656 -0.11169341007433052 0.07563180370991916 0.2514086100108995 0.4294167580818645 0.6395021008470672 0.8434214740079379 1.014569762516962 1.1338338459006665 1.1889499720341563 1.1748190152465139 1.0960076067784736 0.9660520946142168 0.8078812424650905 0.6474964044444876 0.5099230266672982 0.3837782081898655 0.2797557565039958 0.2047874480443542 0.162159662977972 0.15161685081082066 0.16944602578643514 0.2087208536536548 0.2593213688890808 0.3101434510204994 0.35375652204884717 0.392730066512091 0.4227053796148239 0.4408375144466454 0.445778653658989 0.4376703935346507 0.41816663340379545 0.3905086366120703 0.3594932594960992 0.3205329327499585 0.2843023222760572 0.2614707965830326 0.2618302396012668 0.29199448657913557 0.3552778764429827 0.4515738041571102 0.5772107445354946 0.7247708066414048 0.8844181128168682 1.060122342226352 1.2328407394429401 1.3827886631168702 1.494352841922729 1.5579252887460007 1.5699971421636036 1.5332525079244232 1.4566623004298354 1.355578084214251 1.2500307861392894 1.1627124981975803 1.0801882922059467 1.0078676780102067 0.9493492129055123 0.9064532147205759 0.8792544749018898 0.8661149715979448 0.8637165827434619 0.8670937991436074 0.8688073150693582 0.8654961357265718 0.8634318386624451 0.8640006197198775 0.868131337788312 0.8762936774165411 0.8884963114255141 0.9042850635211424 0.9227410709071082 0.942478946897669 0.9585209762666157 0.9734611593353688 0.9925061022117708 1.0189724150647517 1.0550675489024224 1.1018668053218537 1.1592903462588475 1.2260802037377116 1.2997772896210384 1.3766984053594693 1.4579122657954064 1.5379039388196774 1.6116465533169713 1.674672333989894 1.7241732412385438 1.7590256930729853 1.7798152870257127 1.7888615220641115 1.7902425205029324 1.7913243789471347 1.8041016693213285 1.8135860825805896 1.8125273526416479 1.7961189287636807 1.761769903503885 1.7090754723422834 1.6397873933065337 1.5577844465967394 1.469042894210254 1.3787182313735629 1.2927758167729315 1.2127235648357653 1.1443568491747447 1.0914756845914408 1.0559140778963791 1.037569378729087 1.0344316303781458 1.0426129206012482 1.0563767324452453 1.0736478230762256 1.0884124072587908 1.0956093466129075 1.0886728482447914 1.0635177233902002 1.0184942199111633 0.954342854792725 0.8741492466396751 0.7832989481732839 0.6894728074362481 0.6035150061808822 0.5227234487101748 0.442780821758156 0.36238203318352635 0.2802947410222076 0.19546302186682243 0.10711103924621462 0.014846712004929472 -0.08123461731728905 -0.18200374370796182 -0.2988260966377226 -0.4125873584248243 -0.5081043766815291 -0.5744697823530951 -0.6051901081261638 -0.598214443685061 -0.5559630909680947 -0.48535621942385954 -0.39784252126753833 -0.30904381322959606 -0.23531564320780501 -0.16355896166151496 -0.0947886371156344 -0.029657083055196667 0.031534560129031476 0.08881803273670946 0.14246771517477952 0.19317221047417096 0.24206133157178739 0.2973172586291945 0.3568783265988231 0.40696241229028607 0.43839577207808067 0.4450435569566229 0.4237010764128025 0.37413670150440576 0.2991529943746183 0.2048652559255726 0.10075248339065418 -0.015377492775234971 -0.1294564273586317 -0.22695027689195224 -0.29286378144112896 -0.31791753420725505 -0.2983340716446512 -0.23575961956213393 -0.13754073592177685 -0.01631977471568098 0.11052651708752605 0.23489462456797455 0.35017503522029664 0.44834424964012654 0.5206922185868114 0.5621295301245431 0.5710875711180442 0.5494984368984879 0.5025810423192252 0.43935958796486635 0.3727078427406011 0.3190751223402762 0.266189000906365 0.2152882770552344 0.16721593352553277 0.12244759434978937 0.08111998202601385 0.04305893981840557 0.007605014194853153 -0.02646847596327078 -0.05995203836446298 -0.0941326562304104 -0.1300641419668433 -0.1695751759666175 -0.2139500571505772 -0.263914481485687 -0.3196213205031856 -0.3806363998167316 -0.4459242776405475 -0.5138340233075754 -0.5855333530464075 -0.6578941906740544 -0.7266461589376647 -0.7877149035234786 -0.8383823498075846 -0.8773083950548161 -0.9045526006176674 -0.9215958841351993 -0.9313622117319484 -0.9382402902168393 -0.9569428842924554 -0.9758788262878192 -0.9836742790477434 -0.9734660534333724 -0.9412261225932348 -0.8857156156491255 -0.8084388113819739 -0.7135971319177138 -0.6080431364131559 -0.4995405498333353 -0.3908216086043443 -0.290033237422533 -0.20846793632224508 -0.15467982451155912 -0.13354559676169755 -0.1462803821935382 -0.1904536030640846 -0.260004833552963 -0.3452596585489127 -0.4360919988845663 -0.5217861773488329 -0.6036068943300549 -0.6737140728596527 -0.7266504452812198 -0.7593700143025254 -0.7712665140475187 -0.764201871108325 -0.7425346655972551 -0.7131485921988042 -0.6853586449522553 -0.6632965050058719 -0.6415036653635617 -0.620149084122034 -0.5993418826029558 -0.5791318400286606 -0.5595098881978504 -0.540408606161311 -0.5217027148976136 -0.5032095719888222 -0.4802583470841375 -0.45730574322925865 -0.4400826574405209 -0.4327405015967208 -0.4379300047945023 -0.45679133166435343 -0.48894420068661004 -0.5324780025074501 -0.5839419182548947 -0.6382816790710965 -0.6873828225850288 -0.7363554163455125 -0.78788131147171 -0.8431541449033677 -0.9029289108301098 -0.9675114581610336 -1.0367479879943076 -1.110014551086767 -1.1862065453235047 -1.2673469819069556 -1.3573470597087849 -1.4412637520339342 -1.5064783282332088 -1.5442758355345605 -1.5498421120934587 -1.5222608000432634 -1.4645103585455916 -1.3834610768406899 -1.2898720872978018 -1.1995372555294568 -1.1215662364860652 -1.0428963986794755 -0.9616172065656547 -0.8765397581845396 -0.7871742718914205 -0.6937075730883497 -0.5969805809555403 -0.49846579518275813 -0.4002447827007437 -0.29801173652161433 -0.1980825666122726 -0.1095474128711154 -0.039866922342116834 0.006334031829055484 0.027226247018000922 0.023736087744535887 -0.000494617704352597 -0.03914868065155281 -0.08327365540688315 -0.12535705046409926 -0.16418121720660253 -0.1983444275617484 -0.22474682098424612 -0.2414706649599913 -0.24778668776040266 -0.24416041119675114 -0.2322584833744904 -0.21495501144759052 -0.1947318111641676 -0.1704185733671555 -0.15028751231475374 -0.1434844572377148 -0.15685432268037908 -0.19459931025058957 -0.2582146582508791 -0.34642439130967484 -0.4551170700124995 -0.5772815405331685 -0.7170349496943677 -0.8694223438754519 -1.0009706000155327 -1.0811451606950122 -1.0903207579048475 -1.0194975014615546 -0.8700502960548142 -0.6549704589932788 -0.3958714539337009 -0.12117532803833747 0.15141917776749292 0.4040722834858367 0.633875693530398 0.8221442206292713 0.9566600515764347 1.0312910407994649 1.045609003927221 1.004592258734351 0.922265603769386 0.8224003136844893 0.7368353380122195 0.6638814094796245 0.5937765669058892 0.5275421900974254 0.4656940318116496 0.40822084389235985 0.35463538314965015 0.3040254172398204 0.2551047305452852 0.20562383310695226 0.14523041651997554 0.08687489558115728 0.04017683166611722 0.011902666580446308 0.005987036125353667 0.02357264834013743 0.0629850874792329 0.11975685034990954 0.18688131936707555 0.25758276629229176 0.32464190220146344 0.38648824861081027 0.4349309777469123 0.4644184039951845 0.4720778762949609 0.45746082982261804 0.4224625416465164 0.37147014014482993 0.31161421052456684 0.24379011379909515 0.17656551752288235 0.12187138227053614 0.09262177594247135 0.09751774671505599 0.14147565583149696 0.22523534119520627 0.3452323989633179 0.4934598737506536 0.6573001556782446 0.8422816861813361 1.0279220505713866 1.1908418497578537 1.3066375520980131 1.359961670745278 1.344272090230052 1.2616069201162392 1.1225892032420046 0.946973087474004 0.7629164895399797 0.5964692448784256 0.44420485070094545 0.30575895831182737 0.1861930495820044 0.08817307088998914 0.012119894066992796 -0.04364022265793232 -0.08272517371275367 -0.11054745690879747 -0.13603386999399825 -0.17279183795461567 -0.20905788184214122 -0.24213345920680848 -0.27032660792498514 -0.2926479322709696 -0.308817559663747 -0.31927209741373935 -0.325171589469558 -0.3284064731647569 -0.3363031572838518 -0.35137709007398593 -0.35882355053934595 -0.34935706724137694 -0.317053965742676 -0.25926296590914955 -0.1766560505667599 -0.07329061505596295 0.04445473463702993 0.1678848968131763 0.2976488170053253 0.42390905262318296 0.5353283653798462 0.6187773321011674 0.6657908867790534 0.6724615185990024 0.6395010406274756 0.5718822575007065 0.479726755670093 0.37806446609766176 0.2789195960043702 0.18645270016167145 0.10265140716474058 0.033721085299068976 -0.016299813387856375 -0.045485038360763286 -0.05405652147191066 -0.04502461907784294 -0.024092761498389535 0.0009618105355657413 0.023987410803555206 0.04367163327697775 0.05517525200478418 0.054166107038501825 0.03801751465042233 0.005830589528990382 -0.04154343302579461 -0.1014808749069867 -0.1695632930052989 -0.2458903782848972 -0.3290493407588849 -0.4018329164873443 -0.44726245522614555 -0.4541283268557944 -0.4168794167042015 -0.335587777340015 -0.21638400356052298 -0.06993653679966974 0.08883904934250082 0.24438454138440968 0.3875148700249016 0.5265065218947887 0.6576090735977762 0.7783192805065481 0.8872164564764724 0.9837978535593126 1.0685040205731122 1.1443072180559835 1.216500336481354 1.3065620496708692 1.4013868485791334 1.4793431369143353 1.5269588948511552 1.5358676369456066 1.5027684485826889 1.4293860224240453 1.3224306948556077 1.1935584824352585 1.0593311183404834 0.9327350001249897 0.8155936639972525 0.7119689217441915 0.6274139673996575 0.5649618656884784 0.5251957050066209 0.5063187504013512 0.5042245965513881 0.5125673207470781 0.5218164601579428 0.5190999151637263 0.5184315141005074 0.5239636007356268 0.5386598401137833 0.5642743849835321 0.6013310422237773 0.6491024392702658 0.7055891905420862 0.7674990638681558 0.8354082510373667 0.9057405031478711 0.969041381811581 1.015616675411154 1.0389775062964266 1.0358338681304269 1.0060881632353667 0.9528287399386377 0.8823234299188167 0.8040130855516462 0.727989028952489 0.6589427619706615 0.5945148209860645 0.5375205095791573 0.4896762115712169 0.451624638336822 0.42296007611631636 0.4022536333282832 0.3870838205079965 0.3740591669273498 0.3596416069932818 0.3439783190113064 0.3273447011849482 0.3090373182258851 0.28859441042795714 0.2658036057239548 0.2407096317423978 0.2136220278643178 0.1851228572800413 0.15701738724886288 0.13584047517285058 0.11198538525181585 0.07818237015817181 0.029060769025548217 -0.038853854038403184 -0.12705559930386548 -0.2349741207707456 -0.3598905155205514 -0.4968532130682705 -0.6534578410445413 -0.830025394229568 -0.9844497387742591 -1.081304752998756 -1.0978105531557025 -1.0234755596834961 -0.8606419267394827 -0.6243132451047597 -0.33715838774331763 -0.02979161878836457 0.27761567789645636 0.5657528587554499 0.8344232733269786 1.0627788706585506 1.2362955679377818 1.3463075426175075 1.3895415245409017 1.369934589691004 1.303123150137747 1.214883482386074 1.1424162779364122 1.0840232151713405 1.025147724425926 0.9649440326944867 0.9029226269531018 0.8389399581871038 0.773188145418558 0.7061846797337709 0.6387622179848265 0.5719682767747446 0.5015717904053107 0.43428197698015286 0.37551605208065175 0.32919268853447137 0.2975281633710321 0.28106340588580814 0.27869356767676606 0.28770762577098374 0.30381609066436344 0.3234785124698786 0.3432644630314165 0.35883492203657374 0.3621731135120483 0.34747763849672475 0.31122973747684923 0.25226055282120885 0.17182417846700945 0.0736757024344595 -0.035864028400065424 -0.15652928589811257 -0.28095453290607414 -0.3954721272875209 -0.48491878315174763 -0.5390666161812653 -0.5526286798542042 -0.5252861424405443 -0.46171546399835506 -0.3716155733700283 -0.2697350451785101 -0.1674068095044778 -0.07476491762832607 0.004837817409543638 0.062163733057811546 0.09132477313387927 0.08977283451288823 0.05829011381673073 0.000979454103065089 -0.07474530844567362 -0.15816899783326113 -0.23838741525605048 -0.31599540674778975 -0.391170703236901 -0.46145093916259267 -0.525236145279289 -0.5818120056516207 -0.6313731146494065 -0.6750462339426334 -0.7149135494964427 -0.7574130812997627 -0.8195921314906466 -0.8732932607357559 -0.8993849110268533 -0.885259161097644 -0.8244504973784451 -0.716465860945162 -0.5666146944682242 -0.38641125843267476 -0.19282553222270377 0.0002980806507681881 0.1793819621953723 0.34442383835850005 0.4823525802685516 0.5846564002673201 0.6471932794438553 0.6700013951683028 0.6571095486257775 0.6163475923502157 0.5606034273047266 0.5072331112370314 0.4645721244978267 0.4248872237115241 0.39046255431607774 0.3627464755723323 0.34236211747591616 0.32911822865247176 0.32202069820702667 0.31928407757336874 0.31834310236342145 0.3202911952614839 0.32096033757591524 0.31609403871866787 0.3016521477540418 0.2749752199362077 0.23481701678071837 0.1813778125055332 0.11633810907407839 0.042892084619086446 -0.034644691429543746 -0.11565557604149915 -0.19530518300207675 -0.2680451718255399 -0.32921905130467805 -0.37593735096389413 -0.40711116083639814 -0.4234856712413858 -0.42767371256123493 -0.4241892950186906 -0.42216741261998947 -0.4320131070071963 -0.4367467324116311 -0.42831512380037084 -0.401412776382412 -0.35341968124948786 -0.2843391610168867 -0.19673570546426017 -0.09579175524284748 0.010709825303862847 0.11556062195136121 0.2133499558878651 0.3063560131661782 0.3914990213831029 0.46691455392923237 0.5318810007663983 0.5867470392051202 0.6328591046820654 0.6724888615374808 0.7090613480715968 0.7521577361338392 0.798406442582843 0.8393935278923532 0.8705797715050023 0.8890462322093474 0.8935005328884454 0.8842831452684288 0.8633736746670831 0.8343971447424172 0.8026302822412433 0.7757625212979723 0.7504109095469419 0.7242954760493808 0.6968831557295248 0.6678664972576948 0.6371600935661889 0.6048970123651721 0.57142522665857 0.5373040452599541 0.501703594105548 0.4608800231704561 0.42394308776434986 0.3985253255481928 0.3900702256498576 0.4017801680132322 0.4345897273260409 0.487138976947665 0.5557467928369609 0.6343841574800864 0.7189965686864499 0.8034652775422464 0.8826600680102044 0.9476214565461903 0.9922009274950615 1.0130859658372975 1.009825089935642 0.9848528842817345 0.9435150322427508 0.8940933488080365 0.8489396612493949 0.8104756869640233 0.7708666656289943 0.7287977424603906 0.6834655647474448 0.6345655526386549 0.5822879530859701 0.5273998840923624 0.47101265023790395 0.41452382116732683 0.357857472533027 0.3021981818225168 0.2486240098603241 0.19832749618352352 0.15202684248091705 0.10999509265683419 0.07208931289492762 0.03775756985011688 0.005784933642851817 -0.02707457250180047 -0.07432425847082379 -0.11689412577682545 -0.14124457557223344 -0.13837955400357888 -0.10388154809013292 -0.03729427757655641 0.058717405744607494 0.178252671567468 0.31205986460731816 0.453475889005415 0.5950356744376679 0.7297714607100586 0.8420885853698288 0.920745158663274 0.9587113804761821 0.9540336445101827 0.9103615154835988 0.8366444982422275 0.747206588157448 0.6540210578250474 0.5702717455164755 0.49894229986573746 0.4518695056221521 0.43707171799861216 0.4587002784587012 0.5169909305038044 0.6082152354602476 0.7246319882663915 0.8544386332597584 1.0082696332211003 1.159543948020152 1.2792536776254266 1.3424204159709874 1.3342331989487788 1.2504463469972 1.0973198482757087 0.8879547336027176 0.6424989930380015 0.38855693240583516 0.1271051016300733 -0.12298774385839527 -0.34105411919503503 -0.5061623447222524 -0.6045508345410451 -0.629219580270254 -0.5811488541976556 -0.4725578804955691 -0.32569797215789104 -0.17032026286286472 -0.043555457035762975 0.07391072707749716 0.17138835603717234 0.24170683397632503 0.28114824762069063 0.28938071130853077 0.2693917120104914 0.2274214543494607 0.17289620562041733 0.12010752734449302 0.07787403941141269 0.032477072382222284 -0.019487656923134516 -0.08046670973412529 -0.1519032715085253 -0.2341974251453782 -0.3266664241979574 -0.42750496608672844 -0.5337454653123155 -0.6592274422762107 -0.7886916147098547 -0.8960089805113245 -0.9607491872544823 -0.9701535058183178 -0.919027013122447 -0.80963077486257 -0.6515740282459357 -0.4617590410702301 -0.26498214076106363 -0.08311632694025675 0.08269118285472146 0.23291270588128338 0.36220215166433917 0.4678628714913109 0.5496771349971246 0.60973560674925 0.6522668228327175 0.6834666674351383 0.713558999815547 0.7657639038761084 0.8128008229327447 0.8388557797049435 0.8339636956515905 0.7935027110570273 0.7171203518255157 0.6079208591782681 0.47260941703431425 0.32163637939137546 0.16274084080850212 0.004949887128941342 -0.146766673438695 -0.2772131350229097 -0.3751770999883213 -0.4332959755906348 -0.4493924760228905 -0.4268563399010729 -0.3743857788296832 -0.30610747889718387 -0.23789657863399585 -0.18044626388653068 -0.12902018445379473 -0.08888813994389733 -0.06347442494480979 -0.05436801198015426 -0.06133273446499369 -0.08231746966162459 -0.11346632163536331 -0.1491288042103369 -0.1936522700091862 -0.23517493814623353 -0.26151049405920507 -0.2621750382962984 -0.23103001159447387 -0.16662325387140217 -0.0714361482204177 0.04894873917878698 0.1857268948174973 0.3272588457905854 0.4727292098433799 0.6133273338018156 0.7382195540478669 0.8372884812991406 0.9038744544081364 0.9346532536671667 0.9306566979565379 0.897773953699285 0.8464807377349658 0.7926384159413867 0.756005849232134 0.7183547403770111 0.6773373975260774 0.6314166983892036 0.5799483241067126 0.5230461292923442 0.4613104274056293 0.39586843688705325 0.328415256908108 0.25553900938302837 0.1794864730331307 0.11092324414108538 0.05938506981377167 0.03131800881046585 0.03014064177242982 0.05595428985278919 0.10543318277549532 0.17221519243948186 0.24684309894293013 0.3150234188414979 0.37668998793770736 0.44096621805444364 0.5102778241292736 0.5863575922131686 0.6701545025484499 0.7617428526467177 0.8604514505966683 0.9650404479856426 1.0735434598116838 1.1856926408069868 1.299412433278535 1.4127538420305892 1.5237312636085394 1.631020498799479 1.7339855978751513 1.8327057058348788 1.9280019076484933 2.021464073499282 2.120276034969109 2.2462622396637326 2.361257511465958 2.4379778060809887 2.4580397254580086 2.411633041646006 2.2973595082968608 2.1220716721683694 1.9007116846272913 1.6561501131524021 1.4093412747117728 1.1833732376144743 0.9816696454994499 0.8255933132766097 0.7293321373454338 0.6999796693471924 0.7376156899171719 0.8353867824368789 0.9795869067862633 1.1497379730959303 1.3219415004618995 1.4850647738202576 1.6487642711244044 1.8085124013629985 1.961085040202898 2.104628000890279 2.238723505151696 2.364456654095206 2.484481899111463 2.6030895127748126 2.7355227741781354 2.871647878760035 2.9982020972336283 3.1068353616754862 3.1921383267638226 3.2516900642055675 3.2861057571634174 3.2990843946829176 3.297456466119524 3.2915203696202817 3.2983261690130448 3.305480107310632 3.3069637463926598 3.299785399720493 3.2822087482513584 3.253746593128249 3.2151546083698257 3.1684250935603244 3.1167807265394636 3.0597203364370382 2.9961185123802436 2.9416626799602628 2.911752269542328 2.917237168409052 2.964353046359731 3.0546566813096407 3.184961284889348 3.3472718280439944 3.5287203666325992 3.7208469767075933 3.910619690035128 4.090026120859106 4.2438121278931185 4.361563492441665 4.4377751514729455 4.471920430691647 4.468520277611737 4.437212494629244 4.392820972095048 4.360304307010429 4.3369683964280155 4.3072540645404995 4.266213720666448 4.210787126536353 4.139778372880836 4.053832856018862 3.9554142544459303 3.848781505422294 3.7399657815611618 3.627903495559368 3.5206135585926503 3.4253347720902845 3.348389715347532 3.293501203055291 3.2618166151838035 3.2519322268663586 3.2599175382829855 3.279339604544172 3.2998944496136935 3.306101754724609 3.315109332632437 3.3338967520387777 3.36721963136284 3.4178812730746704 3.4867080862635587 3.572525009206433 3.672130931936263 3.7802741188104614 3.899315817444855 4.02456926160377 4.135601950131626 4.212757043915974 4.242888153899895 4.219325989507668 4.141845007070421 4.0166300582517955 3.856243038473605 3.679589535341482 3.5109098884810983 3.357931806002744 3.208823801619732 3.064732126045973 2.9263454983386112 2.7939091069059967 2.6672386105155907 2.545734139301907 2.428394295774441 2.313830155825586 2.192340907549267 2.0731666936052067 1.9660139487941728 1.8773539481789978 1.811012610255875 1.7682147838222262 1.747628534844539 1.745409433326221 1.755244840175449 1.768467041942943 1.774516354685716 1.7791374838612823 1.7828442381939043 1.7851617169361391 1.7858126456863184 1.7847173725661332 1.7819938643982267 1.7779577028837816 1.7731220807801107 1.7746025508534191 1.7880173434836917 1.7895376766622613 1.7623958310011094 1.6960072571153864 1.5857352693397668 1.4326557394447843 1.2435091432128103 1.0313132537875278 0.8125612380076447 0.5948121755100949 0.3893551369928222 0.20265386894493975 0.04936829356296485 -0.061128840610370716 -0.12449840536391056 -0.14118133949586859 -0.11614509549159904 -0.059103672596504835 0.012662122887600196 0.08199564239894104 0.14114100276755198 0.1902458803422691 0.2222511181981381 0.2326433140105986 0.21946559757465772 0.18332840832406794 0.1274202728504867 0.057518582422664416 -0.01799962949438768 -0.09618191621246004 -0.17160483271920357 -0.23852070166818326 -0.29123316049677733 -0.32621160144531347 -0.3421176481350266 -0.3398316321460164 -0.322479069595208 -0.29545713771430127 -0.26597108046852047 -0.2429782577896929 -0.22111768130766524 -0.20235622959627386 -0.18805126211495587 -0.1789529239619464 -0.17520645062747678 -0.17635447274697363 -0.18133932085425644 -0.18850533013473772 -0.18684508862884486 -0.1742485480081715 -0.17409806842044337 -0.20388672748171494 -0.2765891675757559 -0.4003489880796491 -0.5781661375893723 -0.8075843061453736 -1.080378317458187 -1.3822415211339694 -1.7254350115315298 -2.079803030141298 -2.403966974659528 -2.658983314477743 -2.818874194466267 -2.8708342585017097 -2.815437472994381 -2.6668439504157253 -2.453006772825776 -2.2158788154005307 -1.9857881978807723 -1.779486843318224 -1.6099765894438647 -1.4979143246691697 -1.456029431427702 -1.489117246355967 -1.594032520474263 -1.7596828793675432 -1.967022283366265 -2.1935569068285905 -2.4291781777955066 -2.6537992243727646 -2.837374926629581 -2.956741285269143 -2.9984046197793752 -2.958564258769591 -2.843135230307151 -2.667770952254109 -2.4578859226038667 -2.2500631286172856 -2.078539144762247 -1.9083637751259497 -1.7363268985081821 -1.5604743052336054 -1.3800467903056501 -1.1954192465604911 -1.0080397578209492 -0.8203686920504188 -0.6358177945068005 -0.4460608363154996 -0.2595347519855909 -0.09733162307462268 0.02309252000008855 0.09045675062455173 0.09960589757580675 0.05146119660957779 -0.04702905795199707 -0.18293886163268674 -0.3374138482144753 -0.49650940729975845 -0.6510172847391261 -0.7963224841303537 -0.9220038201653021 -1.0210930603723885 -1.090176273458761 -1.1294951776524833 -1.143048489044691 -1.1386932699317815 -1.12813211438985 -1.1239463954863562 -1.1232869937727028 -1.1270296924766812 -1.1376440821369103 -1.1566318967549183 -1.1845193460884906 -1.2208494479450116 -1.264174360474831 -1.3120477144646003 -1.363198287940336 -1.4169880777053265 -1.466867018919074 -1.5052297587905723 -1.526825047626761 -1.5287536034992617 -1.5104659769111022 -1.4737604154634636 -1.4227807285224088 -1.364014151885618 -1.3040202608722258 -1.2488945104700644 -1.197596402427118 -1.1540208776274776 -1.1207337446331214 -1.0989813190691773 -1.088700063009213 -1.0885262243605147 -1.0958054762493552 -1.1066025564062854 -1.1277098834011952 -1.1478336598437666 -1.151639307665484 -1.126617468704602 -1.065360144481463 -0.9654076656584885 -0.8290956615002241 -0.6634020293334078 -0.4797939040069546 -0.29462057905825434 -0.10814792578871095 0.06327525341470562 0.2054265354052381 0.3048814880992 0.3537432152818449 0.34957269563857274 0.29531912178608244 0.19925023930356633 0.0748826857638938 -0.06261639008627164 -0.20201430471048895 -0.33524372214759274 -0.44294290941401154 -0.5107838360849885 -0.5305774716428797 -0.5002057112016957 -0.42362824348837724 -0.3108894188240963 -0.17818258744577267 -0.04315414973255141 0.07667497276749163 0.18559303852369302 0.2733835480381058 0.33340649488947716 0.36243748568184464 0.3606097690765695 0.3313562648243279 0.2813515927971247 0.22045410202031607 0.1591787725045998 0.10382855050605826 0.05110929212091488 0.004591564510150426 -0.03332864710752073 -0.061449474752337925 -0.07974104617421127 -0.08936407462914897 -0.09268844865569056 -0.09331182185136011 -0.09753071300290095 -0.1033042565146886 -0.10723367497969208 -0.10804479326406491 -0.10494831461397497 -0.0976383435378937 -0.0862909086888793 -0.07156248574686837 -0.05458852030095887 -0.03615542511678613 -0.007167146999741336 0.017846950407909318 0.02660418355433127 0.009739046885320544 -0.038795146768045546 -0.12160438355655405 -0.23773206598008056 -0.38253713025471775 -0.5475721636799942 -0.7288016898319916 -0.921948452937814 -1.105228705890016 -1.252897510371042 -1.3470700435870528 -1.3777635182123622 -1.3429391023339032 -1.2485438393956814 -1.1085525681432187 -0.9450098425680239 -0.7833061568993999 -0.6423799571630535 -0.5121311464928052 -0.39992455572212576 -0.31033758486500246 -0.2452413721563613 -0.20388196309246806 -0.18296147947128072 -0.176719288432884 -0.17701317149983875 -0.16866914868796418 -0.15525628485041879 -0.14797871228956783 -0.1518280461416948 -0.17009507584250577 -0.204342921958708 -0.2543801930195781 -0.31823414234856445 -0.3921238248948485 -0.47043325406494385 -0.5537933407020266 -0.63502159310331 -0.7075087977641423 -0.7652506977834902 -0.8045066198968112 -0.8238248854006671 -0.8240682210773486 -0.8084391701195125 -0.7825055030547937 -0.7550228142139842 -0.7386465837025519 -0.7207497074377076 -0.6973417801147875 -0.6659049203708713 -0.6251044253902985 -0.574768242775429 -0.5158664424174092 -0.4504906883668992 -0.381833710704852 -0.308348875787746 -0.23244811113349 -0.166491620349135 -0.12251812482680491 -0.1088453950918713 -0.13002218747985236 -0.1867801808133045 -0.27598591307869036 -0.3905927181032879 -0.5195926622320581 -0.6534973899405767 -0.7842688563785333 -0.9107319939230892 -1.0258414526786792 -1.1247556874340123 -1.204902953216364 -1.2660473008457878 -1.3103545724893593 -1.3424583972154513 -1.3695261865479333 -1.405473010166045 -1.4441953396721394 -1.4778918819068274 -1.5030726967345276 -1.5175633326825513 -1.5205077104958444 -1.5123710066917166 -1.4949425371145837 -1.4713386404906976 -1.4470241848843777 -1.435859727107227 -1.421513419562498 -1.3936385616968476 -1.3456538823817654 -1.27405253975132 -1.1783249520732895 -1.0608816286203937 -0.9269760005414343 -0.7846272517324885 -0.6350570225869933 -0.4803186318936243 -0.34473857094808796 -0.2551196415222901 -0.23084463550114753 -0.2836126236674209 -0.41717524448665266 -0.6270729928919944 -0.9003715090691329 -1.215397867241178 -1.5746146413250661 -1.9481139401825283 -2.2891731547039664 -2.5480061716637032 -2.6914296941025055 -2.7029302523019845 -2.582731214758951 -2.3478597991597807 -2.0322140833548037 -1.6866300163326362 -1.351134297047518 -1.0536817777258034 -0.8042004476548564 -0.6297023545051799 -0.5470956941298734 -0.5632323608210157 -0.6749554975660814 -0.8691470463043636 -1.1227752981833754 -1.4029424438153002 -1.7143331378709399 -2.0157014984829567 -2.269048788095852 -2.441231768248658 -2.5121458151613396 -2.4747762532332827 -2.335249688541746 -2.1128853423403124 -1.8402463845573758 -1.5541013738704936 -1.2933417581102846 -1.0583505573717382 -0.8864445823339833 -0.8044267910866639 -0.8283548596994383 -0.963309752791382 -1.2031642941005125 -1.530351737053201 -1.9156343353336982 -2.3508010691905046 -2.804604235604642 -3.225919232251197 -3.552707455486807 -3.7429453064833185 -3.7747103565886637 -3.646267512687558 -3.3761551825624543 -3.0032714402543 -2.586960191423395 -2.2079893067193406 -1.8828060142509624 -1.5701187071422353 -1.2690462256035573 -0.979178082962458 -0.7014512553569163 -0.4377002200624915 -0.18719095162285312 0.05278086661368393 0.2862068508580302 0.5682237236714667 0.8469657921902437 1.0728407456557998 1.2109669237739713 1.2432758314916017 1.16313224758846 0.9736240119763095 0.6913294498263883 0.3457202231104672 -0.028425231807813034 -0.4203711994941268 -0.8039189413747212 -1.128526551241512 -1.3520232217718007 -1.4451552578085853 -1.397415634436799 -1.2183723198658774 -0.9366306256550075 -0.601185764867085 -0.26422538699059356 0.02179744232725658 0.2768929145048746 0.47453291793409014 0.5991435341986537 0.643893708814948 0.6094404441509542 0.5037319202868438 0.3418106158754834 0.14669337618148617 -0.06559608108129979 -0.2703463988646415 -0.45617540111793303 -0.596150144599048 -0.6711816727704314 -0.6719647750996381 -0.5990294148675893 -0.4624579334960759 -0.2825431587497915 -0.08805995312534551 0.09160619195804065 0.2531342181420613 0.40351451889298007 0.5378354849976834 0.6533281863863635 0.7491866337741083 0.8263880403023561 0.8875130831804868 0.9368428732038193 0.9830559052099368 1.0582337925246177 1.128847322224424 1.1716663465163575 1.1722158733844874 1.122778855492916 1.0231386994728637 0.8787705341534711 0.699572491067843 0.5001025241462574 0.29267472397354743 0.08805755140076092 -0.10748761872338833 -0.27184038049584736 -0.38917286652634486 -0.44966542543719895 -0.449258510335641 -0.3918337158373515 -0.2897316295480449 -0.16332020430916722 -0.03017718703825519 0.08938151582857987 0.19050654748539808 0.2535622803576747 0.264644653444697 0.21577993603176188 0.10512349140238754 -0.06284145944942313 -0.2771050741070144 -0.5199321250188054 -0.7814418839443992 -1.0458716095531568 -1.3026838999742962 -1.534722378633489 -1.729944544346693 -1.8816778760569701 -1.9888759375711762 -2.0563744822966705 -2.095147557978135 -2.1225636114342166 -2.1776648070168556 -2.2360491702207264 -2.2759365225235566 -2.2861130999403794 -2.259959738889532 -2.1953990836068087 -2.094842793559631 -1.9651387508612428 -1.8175182676848518 -1.6673761504457203 -1.5339160557463256 -1.404487786087648 -1.2789764247474875 -1.1579877844505413 -1.0418177116282794 -0.9304636051355752 -0.8236359349674411 -0.7207697609757553 -0.6210362515858991 -0.5226246932856816 -0.4244454639747975 -0.32954835218071893 -0.2394921605910466 -0.15525250984012257 -0.07724310794227934 -0.0053370197249893855 0.0610779800872827 0.12301500657619108 0.1821568477294618 0.25439983375823133 0.33215607244555767 0.3921295096592527 0.41703733571607216 0.394500207047537 0.31731409567220015 0.18372213866781653 -0.002313512356440738 -0.23075368589306638 -0.4848815254767365 -0.762978740097977 -1.0463816652681672 -1.31566687762273 -1.5502284555143924 -1.736023063499008 -1.8657876711033448 -1.9393376214335467 -1.9638646997834668 -1.9542352022430336 -1.9342167568725515 -1.9470556377897157 -1.9592421822121684 -1.9531586138191706 -1.9195720258117095 -1.853422086185861 -1.7537327238018414 -1.623523814452989 -1.4697228669348321 -1.303076709114078 -1.1325164772241714 -0.9672852561723253 -0.81613692507385 -0.695975519529149 -0.6182807118205627 -0.5891489125784783 -0.6093343724474065 -0.6742902837520599 -0.7742098821634512 -0.8940675483649637 -1.0175480177164251 -1.132239093102482 -1.2434238283602634 -1.34469939750469 -1.4316329115504944 -1.501806139157466 -1.5548602272757 -1.5925404217909005 -1.618740788169601 -1.6395489321044698 -1.6761410272264012 -1.7173820538980815 -1.7416182522856725 -1.7359862472381506 -1.6927040796829544 -1.608968389030333 -1.4868515955777273 -1.333199082914072 -1.1595263803241853 -0.9819163451930824 -0.8053286121221909 -0.6414604513979807 -0.5015272105026277 -0.3964837864163604 -0.33259354556234516 -0.31151467620641704 -0.33038654085677716 -0.38191602866366997 -0.45446390781911283 -0.5322667883602157 -0.5956574719600597 -0.6590447803961484 -0.7222963200240692 -0.7849366264265265 -0.8466762788949748 -0.9074164097912946 -0.9672532139094667 -1.026482457837301 -1.0856039893180907 -1.1468634069243462 -1.211079733185464 -1.273544845403852 -1.3310778424140328 -1.3814796014980206 -1.423545832801682 -1.4570801337510495 -1.482907043468652 -1.502885097189865 -1.5199198806792185 -1.5475434631901412 -1.5799681561438685 -1.5992100854532432 -1.5938225614597998 -1.556698790510753 -1.4849893183819058 -1.3800194737006446 -1.2472068113688528 -1.0959785559858737 -0.9396890452714859 -0.7761547714053216 -0.6234096559570762 -0.49859123138329287 -0.41807741671296206 -0.3921420430262115 -0.424924616816535 -0.5144000833530138 -0.6523485900425428 -0.8243252497920751 -1.013316419722497 -1.221928168693416 -1.419140970328409 -1.5721039464435973 -1.6559938177231328 -1.656774192364747 -1.5710904104528711 -1.4061643883318096 -1.1796894629788826 -0.9197252363775671 -0.6595660039312693 -0.4346153530922896 -0.22851181450339772 -0.05430868921647208 0.07988677419599535 0.1706957632172673 0.2192502849627969 0.23097554975654191 0.21537235470740712 0.18579946728558258 0.15941418336776197 0.14386754488032008 0.12802221520699883 0.11163872617600692 0.0945554789726611 0.07668957020588296 0.058037617974680884 0.03867658793465253 0.01876461936446685 -0.001458148767639921 -0.030905299945602715 -0.060432820574207194 -0.07785787443205593 -0.07450579950313757 -0.04560884167454177 0.010291821729606718 0.09201365541582637 0.1956381982465799 0.3144164953656304 0.43867453032336823 0.570255034310097 0.6988296360733146 0.8139387860706195 0.9055765064620194 0.9668223944424492 0.9946513307415048 0.9903356403493373 0.9592274755206213 0.9108427052436651 0.8591950075195021 0.8229087927043678 0.7864281654108882 0.7487669565265139 0.70926725753349 0.6675923298481287 0.6237195141600843 0.5779331397715907 0.5308303005512873 0.4833668164933023 0.43892884399366067 0.3982855158127613 0.35479522411751235 0.3037750141801644 0.24172788851285204 0.1664378303868686 0.0770648273518656 -0.025760105244923896 -0.13983990073941663 -0.2613489415738107 -0.4081731129048246 -0.5602931242824906 -0.6839898751017957 -0.7532865068683169 -0.752371502761585 -0.6754963899003702 -0.5280965874799941 -0.3233284963702361 -0.08122375610333075 0.1709117657546084 0.4274230380090314 0.6713512753064766 0.8866642424299411 1.0533864662691697 1.1584183954935405 1.195151319435274 1.1634286551705533 1.0732794416579026 0.9446110427021416 0.8065591210591382 0.6964825579381431 0.5938006187777162 0.4981427945131671 0.4110924520727502 0.33317746298806766 0.26395858374268655 0.20211783612065257 0.14554688755507916 0.0914354314767297 0.03304761173353337 -0.03443161289794726 -0.09734853787986356 -0.1475183675633666 -0.1793228019671518 -0.1897193180375737 -0.17825045090875702 -0.14705307516271662 -0.10086768608946334 -0.047047680947122784 0.007603863212869662 0.05715038161825512 0.10165397639501761 0.13671874509182302 0.1594922395986805 0.16865596525042867 0.16441587993020879 0.14849289317295392 0.12411336526886196 0.09599960636687836 0.06829161689146745 0.04273407493006983 0.019662061656849226 0.0010087790056539422 -0.01199628558706746 -0.01883077031411096 -0.01968285012935158 -0.015454647879588963 -0.007765645436383593 0.0008626326376341219 0.0022191506023734263 0.004759877958604022 0.014298473716472391 0.03448796897210906 0.06725003052227557 0.1128860342987934 0.1704227154530074 0.2375803818471693 0.3107374168213636 0.38877202467037897 0.47196068507011335 0.5486252939699937 0.6057488796363745 0.6343785487711746 0.6298113279863886 0.5912482269562817 0.5216986794677081 0.42793415780934185 0.32058821920625796 0.20676419380513678 0.09660824567199165 -0.004782216064934085 -0.0850128152933545 -0.1354815655515765 -0.15129325192791532 -0.13191325707490842 -0.08128947547098764 -0.007736324929966964 0.07590691934072055 0.16043610472524372 0.23695807538208946 0.3023307937536778 0.34862843847322084 0.37077851013481694 0.36655637942107633 0.3365825339458843 0.28431982509718234 0.21607071487973817 0.14103279208900787 0.06746843382148997 -0.0036943280727960402 -0.0710781934531694 -0.13119253089000008 -0.18186633841439812 -0.22215088106057526 -0.2523467625013553 -0.27403206430726557 -0.2900904852056612 -0.3054883199304301 -0.3287528359409559 -0.35049020142194 -0.36611823634400376 -0.37264877434950694 -0.3683924991264478 -0.35295416058131845 -0.3272277910119629 -0.2933919212804411 -0.2549047969858818 -0.2133180864213763 -0.17163344601272282 -0.1353302958305025 -0.11157979843376094 -0.10532434027967472 -0.11925820104029426 -0.15380822291930318 -0.2071144799687735 -0.2750109474059065 -0.3510061709297983 -0.4242950919431125 -0.49284236680700394 -0.565133509590751 -0.6438662141516125 -0.7309337769416241 -0.827392457914276 -0.9334288414313043 -1.0483271971694075 -1.1704368410269486 -1.2971394960307563 -1.4447290792853618 -1.5924507329568331 -1.7173823442760485 -1.8019966081674959 -1.8353760072856804 -1.81320705364834 -1.7377745302696561 -1.6179557327934546 -1.469214711126422 -1.3136741671642809 -1.180951326487391 -1.0543986260435259 -0.9290825611387235 -0.8042845279986289 -0.679653138434125 -0.5551875189914577 -0.43122061010221796 -0.30840246523346304 -0.18772092766489565 -0.06740453937280957 0.05553048940884588 0.16912510983772489 0.2636909242700738 0.33290744618098617 0.3736872227366283 0.38602873706558644 0.37294389116198623 0.34038548878856606 0.2971747183798013 0.25772546020321274 0.22827459065339833 0.19466691464243502 0.1523192969891145 0.09801935866417409 0.02991526618235651 -0.052461512076787155 -0.1481106600214074 -0.2545069724255232 -0.36754431350727673 -0.491749188311887 -0.61743418289587 -0.7326159228489614 -0.8264597692722758 -0.8918227430301788 -0.9253118137199314 -0.9273421886413559 -0.902195601766517 -0.858078602709365 -0.807180845695423 -0.7533760905229854 -0.7058708655932298 -0.673695753492194 -0.6660774495677171 -0.6888374445489525 -0.7443356702357397 -0.831414145187951 -0.945340620414895 -1.0777522250646574 -1.2216421109938467 -1.3758639129280377 -1.520866347831533 -1.633213315288765 -1.6963814100253372 -1.7011397309504648 -1.64552105278492 -1.5347929976889993 -1.3814292068904652 -1.2050805123125001 -1.0203060831905055 -0.8462381143644899 -0.6948447003918965 -0.5916210335465031 -0.5543819172535325 -0.5931086224964047 -0.7097957442234902 -0.8982980577547985 -1.1441773751887652 -1.4245494018089422 -1.7540805129997639 -2.089788780755293 -2.3719132145880786 -2.545490362614104 -2.576675591588384 -2.4522766997574763 -2.1792875297120298 -1.7844215812393842 -1.3151882653190212 -0.8394051339225644 -0.4126014272243826 -0.036931094609998626 0.2943751098298586 0.5695806316664593 0.7834068236027022 0.9363163106786375 1.0337963554767353 1.085642223327243 1.1052405475136482 1.1145442157482819 1.1615428258860057 1.2054291262725045 1.2256258871541752 1.2107072959424814 1.1547080161744816 1.0570613195421705 0.9231063050910572 0.7621510995812136 0.587110708083936 0.40857680015004366 0.2371113222192712 0.07464171392458643 -0.06443969776466914 -0.17008479639692306 -0.23640908380660916 -0.2615110878824347 -0.24754542331177276 -0.20273262514245113 -0.1410951920710883 -0.08355272925774229 -0.039798950870231935 0.005102899639878411 0.052784459141683567 0.1040933956498758 0.1594580512444338 0.21894057840751863 0.2821916797726526 0.3484053478739671 0.41627360489540416 0.4839708567158154 0.5519346244509747 0.6213813674122405 0.6923507099770964 0.7646581545878754 0.8382538165887934 0.9131371211942071 0.9893182718037085 1.0668186444398937 1.1456711821860703 1.2386630004961883 1.3298984710077753 1.4069684227002426 1.4609633131613364 1.4864785661453932 1.4816283863147315 1.4480595739810413 1.3909653398467654 1.3190991197464947 1.242970415295634 1.174556085140881 1.1107308823507296 1.0587866816487523 1.0237500243726105 1.0083921412363142 1.0132389750924649 1.036581203694502 1.0744842624589563 1.120798367227691 1.1666702351398175 1.2061476040370278 1.2467163465361744 1.2893309739069505 1.334655787153662 1.383059006860647 1.4346069030376951 1.4890579249655083 1.5458568310411023 1.6041288186232714 1.6598048874224403 1.7147350303700077 1.774020862297707 1.841107136915886 1.9183485935128133 2.006977517197672 2.107071299143633 2.2175199968309043 2.3359938942897345 2.458911062343512 2.6114447098174467 2.759812950847682 2.8722377756646695 2.9253695416414365 2.9054828287346983 2.8083250516494105 2.638965072003255 2.4116418104911532 2.149612859049813 1.882667539778535 1.639192487294674 1.4148400620083257 1.2227604529161 1.0737554767014104 0.9732262547888836 0.9213658102151855 0.9133516644997138 0.9395384345154003 0.9856504293594758 1.0323833709350139 1.0623264919117792 1.0934594941114946 1.1272643954616688 1.1647841382839985 1.2066142709970757 1.2528946298190378 1.3033010204702766 1.3570368998761062 1.4128250578694306 1.4735167373921008 1.535928007374542 1.5924661824083146 1.6366529584941427 1.6641971384074454 1.6730026964962925 1.6631768434793435 1.6370380912438043 1.5991243176433667 1.556200831296159 1.511707658671201 1.470817632290142 1.4372788622129749 1.416270572346792 1.4110694325694193 1.4230446199248508 1.4516528798186765 1.4944335872135166 1.5470038078244528 1.603416943385039 1.6658543648502575 1.7241849554887867 1.7689272380434944 1.7924447880235321 1.7902633296300348 1.7610549656468162 1.7066224073310916 1.6318832043041809 1.5448539744422165 1.4517593080709865 1.3577114371414205 1.2739633511721398 1.2178206673003469 1.2016122474572486 1.2325958081738144 1.312863530386594 1.43924766924347 1.6032261639094687 1.7908282473725463 2.0042110132882325 2.226040914726103 2.4201927268096566 2.5498412869389755 2.591152473346783 2.5330836788606588 2.3771842846654234 2.1373961340654395 1.8398540062469029 1.5226867291510553 1.2243084475047494 0.9619584418825183 0.7295265347093289 0.5384886655691186 0.39492597367218935 0.29984493414169305 0.2494974943002647 0.23570120995661348 0.2461593816920322 0.2647811911470488 0.2742503780651193 0.27829543632789955 0.279564325858783 0.2763209930469398 0.2674842012280826 0.2526327959096397 0.23201096999593682 0.20653352901338237 0.17779115633563916 0.14559816417216623 0.10351358806502343 0.06800727244820726 0.05203624531970122 0.06427328463975324 0.11008622409157048 0.19138001324491835 0.3064387777196843 0.4497678793494134 0.6119359763449225 0.788461477617772 0.971092091390697 1.1469639778119258 1.2950152687693506 1.4002861594020017 1.4546014427027925 1.4561793871775424 1.4097516631235145 1.326683268907981 1.225092457246805 1.1249863183515247 1.0386552334215693 0.9606912579920314 0.8975064976292287 0.8531746200613273 0.8294603522968729 0.825848977743286 0.8395758333253894 0.865655806603921 0.896912832894036 0.9308241878746479 0.9612292239609451 0.9830462247455299 0.9903712329859455 0.9796216752302292 0.9495114274232515 0.901025880513028 0.8373970060570425 0.764078421828582 0.688602815294067 0.6192651847681531 0.5531025807618413 0.49053922646005177 0.4326678418125341 0.3799680460982079 0.3323461394228519 0.28917488421672655 0.2493332867322448 0.21124637854163925 0.17536556769542694 0.14281138340899252 0.10558134860649362 0.055865316319621626 -0.012198288524965751 -0.1023542595020827 -0.21611224277665017 -0.35262979628661306 -0.5085954489257289 -0.6781117597264651 -0.869011025366897 -1.0709522204623088 -1.254521726818916 -1.3932715067089354 -1.4695521063009653 -1.474529204604834 -1.408200162416474 -1.2794105712627821 -1.1058708023464723 -0.9141725554909526 -0.7334048622232363 -0.5725403412334844 -0.42515955265184735 -0.2974533133237767 -0.1929374806794862 -0.11255893081016297 -0.05480153654415931 -0.015792145523115565 0.010593441721806388 0.03262449369380367 0.07251034906474506 0.11215069635135058 0.13712973005615245 0.13840858227861563 0.11013928779340516 0.0497542544759234 -0.041944266272129264 -0.16069470909725525 -0.29868672426858817 -0.4498566388049143 -0.614677025547124 -0.7709311948273875 -0.8935366568578453 -0.9648250182885916 -0.9749068861497345 -0.9216452675434083 -0.810628969335809 -0.6551459978492067 -0.47615695855396745 -0.29533597205921003 -0.1345693652937232 0.00984755994043186 0.124040511189383 0.19895161614963644 0.23025900531788326 0.21829639464074757 0.16797266816456993 0.08869146068519584 -0.0057292596022665765 -0.10162158068581992 -0.19108759492058192 -0.2763638239737419 -0.3517824195947415 -0.4134953958466318 -0.4595159886494593 -0.48976001532360575 -0.506087234133139 -0.5123427038291943 -0.5143981431933036 -0.532074857056456 -0.5505903661859319 -0.5538264782651731 -0.5323232290729051 -0.48071874146153054 -0.39762885232253764 -0.2856903777519225 -0.15171317844039564 